#[MATERIAL DEFINITION FOR MC-GPU: interaction mean free path and sampling data from PENELOPE 2018]
#[MATERIAL NAME]
# liver                                                         
#[NOMINAL DENSITY (g/cm^3)]
#   1.05000000
#[NUMBER OF DATA VALUES]
#  23002
#[MEAN FREE PATHS (cm) (ie, average distance between interactions)]
#[Energy (eV)     | Rayleigh        | Compton         | Photoelectric   | TOTAL (+pair prod) (cm) | Rayleigh: max cumul prob F^2]
  5.0000000000E+03  1.7204502187E+00  8.1781916132E+00  2.3374707165E-02  2.2996539077E-02  3.4715288041E-01
  5.0050000000E+03  1.7224835997E+00  8.1729991645E+00  2.3445113568E-02  2.3065006144E-02  3.4741464683E-01
  5.0100000000E+03  1.7245173501E+00  8.1678151923E+00  2.3515661162E-02  2.3133606266E-02  3.4767610991E-01
  5.0150000000E+03  1.7265529462E+00  8.1626396744E+00  2.3586350087E-02  2.3202339823E-02  3.4793727027E-01
  5.0200000000E+03  1.7285897959E+00  8.1574725884E+00  2.3657180485E-02  2.3271206826E-02  3.4819812857E-01
  5.0250000000E+03  1.7306270172E+00  8.1523139124E+00  2.3728152497E-02  2.3340207229E-02  3.4845868542E-01
  5.0300000000E+03  1.7326646098E+00  8.1471636242E+00  2.3799266262E-02  2.3409341147E-02  3.4871894148E-01
  5.0350000000E+03  1.7347025733E+00  8.1420217020E+00  2.3870521923E-02  2.3478608693E-02  3.4897889736E-01
  5.0400000000E+03  1.7367409076E+00  8.1368881238E+00  2.3941919620E-02  2.3548009982E-02  3.4923855370E-01
  5.0450000000E+03  1.7387796123E+00  8.1317628678E+00  2.4013459494E-02  2.3617545127E-02  3.4949791112E-01
  5.0500000000E+03  1.7408186871E+00  8.1266459124E+00  2.4085141686E-02  2.3687214242E-02  3.4975697026E-01
  5.0550000000E+03  1.7428581317E+00  8.1215372358E+00  2.4156966338E-02  2.3757017440E-02  3.5001573172E-01
  5.0600000000E+03  1.7448981166E+00  8.1164368165E+00  2.4228933589E-02  2.3826954867E-02  3.5027419614E-01
  5.0650000000E+03  1.7469387887E+00  8.1113446331E+00  2.4301043581E-02  2.3897026664E-02  3.5053236413E-01
  5.0700000000E+03  1.7489798303E+00  8.1062606641E+00  2.4373296455E-02  2.3967232886E-02  3.5079023630E-01
  5.0750000000E+03  1.7510212412E+00  8.1011848882E+00  2.4445692352E-02  2.4037573646E-02  3.5104781328E-01
  5.0800000000E+03  1.7530630210E+00  8.0961172842E+00  2.4518231412E-02  2.4108049057E-02  3.5130509567E-01
  5.0850000000E+03  1.7551051695E+00  8.0911452664E+00  2.4590913777E-02  2.4178660013E-02  3.5156208409E-01
  5.0900000000E+03  1.7571476863E+00  8.0861896617E+00  2.4663739587E-02  2.4249405932E-02  3.5181877915E-01
  5.0950000000E+03  1.7591905713E+00  8.0812419533E+00  2.4736708984E-02  2.4320286853E-02  3.5207518145E-01
  5.1000000000E+03  1.7612338240E+00  8.0763021209E+00  2.4809822108E-02  2.4391302888E-02  3.5233129160E-01
  5.1050000000E+03  1.7632774442E+00  8.0713701443E+00  2.4883079100E-02  2.4462454150E-02  3.5258711019E-01
  5.1100000000E+03  1.7653222512E+00  8.0664460032E+00  2.4956480102E-02  2.4533740910E-02  3.5284263784E-01
  5.1150000000E+03  1.7673674345E+00  8.0615296776E+00  2.5030025254E-02  2.4605163126E-02  3.5309787514E-01
  5.1200000000E+03  1.7694129854E+00  8.0566211475E+00  2.5103714696E-02  2.4676720909E-02  3.5335282269E-01
  5.1250000000E+03  1.7714589038E+00  8.0517203928E+00  2.5177548571E-02  2.4748414372E-02  3.5360748108E-01
  5.1300000000E+03  1.7735051893E+00  8.0468273938E+00  2.5251527018E-02  2.4820243628E-02  3.5386185091E-01
  5.1350000000E+03  1.7755518417E+00  8.0419421305E+00  2.5325650179E-02  2.4892208788E-02  3.5411593277E-01
  5.1400000000E+03  1.7775988606E+00  8.0370645834E+00  2.5399918195E-02  2.4964309967E-02  3.5436972725E-01
  5.1450000000E+03  1.7796462457E+00  8.0321947325E+00  2.5474331206E-02  2.5036547275E-02  3.5462323493E-01
  5.1500000000E+03  1.7816939968E+00  8.0273325585E+00  2.5548889354E-02  2.5108920826E-02  3.5487645641E-01
  5.1550000000E+03  1.7837426609E+00  8.0224780417E+00  2.5623592779E-02  2.5181430841E-02  3.5512939226E-01
  5.1600000000E+03  1.7857921538E+00  8.0176311626E+00  2.5698441622E-02  2.5254077417E-02  3.5538204312E-01
  5.1650000000E+03  1.7878420132E+00  8.0128432612E+00  2.5773436024E-02  2.5326861086E-02  3.5563440985E-01
  5.1700000000E+03  1.7898922387E+00  8.0081041700E+00  2.5848576126E-02  2.5399781871E-02  3.5588649317E-01
  5.1750000000E+03  1.7919428300E+00  8.0033724586E+00  2.5923862069E-02  2.5472839471E-02  3.5613829376E-01
  5.1800000000E+03  1.7939937870E+00  7.9986481085E+00  2.5999293994E-02  2.5546034000E-02  3.5638981231E-01
  5.1850000000E+03  1.7960451092E+00  7.9939311010E+00  2.6074872041E-02  2.5619365569E-02  3.5664104950E-01
  5.1900000000E+03  1.7980967964E+00  7.9892214179E+00  2.6150596352E-02  2.5692834290E-02  3.5689200601E-01
  5.1950000000E+03  1.8001488483E+00  7.9845190405E+00  2.6226467067E-02  2.5766440274E-02  3.5714268250E-01
  5.2000000000E+03  1.8022012688E+00  7.9798239506E+00  2.6302484327E-02  2.5840183636E-02  3.5739307965E-01
  5.2050000000E+03  1.8042545747E+00  7.9751361299E+00  2.6378648274E-02  2.5914064592E-02  3.5764319813E-01
  5.2100000000E+03  1.8063082451E+00  7.9704555602E+00  2.6454959048E-02  2.5988083149E-02  3.5789303862E-01
  5.2150000000E+03  1.8083622798E+00  7.9657822232E+00  2.6531416789E-02  2.6062239416E-02  3.5814260176E-01
  5.2200000000E+03  1.8104166785E+00  7.9611161010E+00  2.6608021639E-02  2.6136533507E-02  3.5839188824E-01
  5.2250000000E+03  1.8124714408E+00  7.9564571755E+00  2.6684773739E-02  2.6210965533E-02  3.5864089869E-01
  5.2300000000E+03  1.8145265666E+00  7.9518054287E+00  2.6761673229E-02  2.6285535604E-02  3.5888963379E-01
  5.2350000000E+03  1.8165820555E+00  7.9471608427E+00  2.6838720251E-02  2.6360243832E-02  3.5913809419E-01
  5.2400000000E+03  1.8186379072E+00  7.9425233996E+00  2.6915914945E-02  2.6435090329E-02  3.5938628054E-01
  5.2450000000E+03  1.8206941214E+00  7.9378930817E+00  2.6993257452E-02  2.6510075205E-02  3.5963419349E-01
  5.2500000000E+03  1.8227515720E+00  7.9333534366E+00  2.7070747912E-02  2.6585199696E-02  3.5988183369E-01
  5.2550000000E+03  1.8248107769E+00  7.9288267093E+00  2.7148386468E-02  2.6660463165E-02  3.6012920178E-01
  5.2600000000E+03  1.8268703464E+00  7.9243068663E+00  2.7226173259E-02  2.6735865363E-02  3.6037629841E-01
  5.2650000000E+03  1.8289302803E+00  7.9197938905E+00  2.7304108427E-02  2.6811406400E-02  3.6062312422E-01
  5.2700000000E+03  1.8309905784E+00  7.9152877651E+00  2.7382192112E-02  2.6887086387E-02  3.6086967984E-01
  5.2750000000E+03  1.8330512402E+00  7.9107884730E+00  2.7460424455E-02  2.6962905435E-02  3.6111596592E-01
  5.2800000000E+03  1.8351122656E+00  7.9062959976E+00  2.7538805597E-02  2.7038863654E-02  3.6136198308E-01
  5.2850000000E+03  1.8371736542E+00  7.9018103221E+00  2.7617335678E-02  2.7114961155E-02  3.6160773196E-01
  5.2900000000E+03  1.8392354058E+00  7.8973314297E+00  2.7696014841E-02  2.7191198049E-02  3.6185321319E-01
  5.2950000000E+03  1.8412975202E+00  7.8928593037E+00  2.7774843225E-02  2.7267574447E-02  3.6209842739E-01
  5.3000000000E+03  1.8433600158E+00  7.8883939277E+00  2.7853820971E-02  2.7344090462E-02  3.6234337518E-01
  5.3050000000E+03  1.8454228828E+00  7.8839352850E+00  2.7932948221E-02  2.7420746204E-02  3.6258805720E-01
  5.3100000000E+03  1.8474861117E+00  7.8794833591E+00  2.8012225115E-02  2.7497541780E-02  3.6283247406E-01
  5.3150000000E+03  1.8495497023E+00  7.8750381337E+00  2.8091651793E-02  2.7574477301E-02  3.6307662638E-01
  5.3200000000E+03  1.8516136541E+00  7.8705995924E+00  2.8171228397E-02  2.7651552877E-02  3.6332051477E-01
  5.3250000000E+03  1.8536779671E+00  7.8661677187E+00  2.8250955068E-02  2.7728768618E-02  3.6356413985E-01
  5.3300000000E+03  1.8557426408E+00  7.8617463400E+00  2.8330831946E-02  2.7806124682E-02  3.6380750223E-01
  5.3350000000E+03  1.8578076751E+00  7.8574143168E+00  2.8410859172E-02  2.7883622173E-02  3.6405060251E-01
  5.3400000000E+03  1.8598730696E+00  7.8530887353E+00  2.8491036887E-02  2.7961260172E-02  3.6429344131E-01
  5.3450000000E+03  1.8619388240E+00  7.8487695801E+00  2.8571365231E-02  2.8039038788E-02  3.6453601923E-01
  5.3500000000E+03  1.8640043357E+00  7.8444568355E+00  2.8651844347E-02  2.8116957994E-02  3.6477833688E-01
  5.3550000000E+03  1.8660701176E+00  7.8401504861E+00  2.8732474374E-02  2.8195018015E-02  3.6502039485E-01
  5.3600000000E+03  1.8681362577E+00  7.8358505165E+00  2.8813255453E-02  2.8273218982E-02  3.6526219373E-01
  5.3650000000E+03  1.8702027558E+00  7.8315569112E+00  2.8894187724E-02  2.8351561003E-02  3.6550373414E-01
  5.3700000000E+03  1.8722696117E+00  7.8272696548E+00  2.8975271330E-02  2.8430044188E-02  3.6574501666E-01
  5.3750000000E+03  1.8743368250E+00  7.8229887322E+00  2.9056506411E-02  2.8508668647E-02  3.6598604188E-01
  5.3800000000E+03  1.8764043954E+00  7.8187141281E+00  2.9137893107E-02  2.8587434489E-02  3.6622681040E-01
  5.3850000000E+03  1.8784723228E+00  7.8144458273E+00  2.9219431559E-02  2.8666341824E-02  3.6646732279E-01
  5.3900000000E+03  1.8805406068E+00  7.8101838146E+00  2.9301121908E-02  2.8745390760E-02  3.6670757966E-01
  5.3950000000E+03  1.8826092472E+00  7.8059280750E+00  2.9382964295E-02  2.8824581407E-02  3.6694758158E-01
  5.4000000000E+03  1.8846794684E+00  7.8016785934E+00  2.9464958860E-02  2.8903914162E-02  3.6718732912E-01
  5.4050000000E+03  1.8867500746E+00  7.7974353549E+00  2.9547105745E-02  2.8983388854E-02  3.6742682289E-01
  5.4100000000E+03  1.8888210380E+00  7.7931983445E+00  2.9629405090E-02  2.9063005587E-02  3.6766606344E-01
  5.4150000000E+03  1.8908923582E+00  7.7889675474E+00  2.9711857036E-02  2.9142764468E-02  3.6790505136E-01
  5.4200000000E+03  1.8929640350E+00  7.7848169268E+00  2.9794461724E-02  2.9222666650E-02  3.6814378722E-01
  5.4250000000E+03  1.8950360682E+00  7.7806820478E+00  2.9877219295E-02  2.9302711348E-02  3.6838227159E-01
  5.4300000000E+03  1.8971084575E+00  7.7765531712E+00  2.9960129888E-02  2.9382898534E-02  3.6862050505E-01
  5.4350000000E+03  1.8991812026E+00  7.7724302828E+00  3.0043193646E-02  2.9463228316E-02  3.6885848815E-01
  5.4400000000E+03  1.9012543032E+00  7.7683133684E+00  3.0126410709E-02  2.9543700805E-02  3.6909622147E-01
  5.4450000000E+03  1.9033277591E+00  7.7642024138E+00  3.0209781217E-02  2.9624316107E-02  3.6933370556E-01
  5.4500000000E+03  1.9054786050E+00  7.7600974050E+00  3.0293305312E-02  2.9705093055E-02  3.6957094100E-01
  5.4550000000E+03  1.9076303711E+00  7.7559983279E+00  3.0376983134E-02  2.9786013292E-02  3.6980792834E-01
  5.4600000000E+03  1.9097825923E+00  7.7519051685E+00  3.0460814824E-02  2.9867076815E-02  3.7004466814E-01
  5.4650000000E+03  1.9119352684E+00  7.7478179128E+00  3.0544800523E-02  2.9948283733E-02  3.7028116095E-01
  5.4700000000E+03  1.9140883990E+00  7.7437365470E+00  3.0628940371E-02  3.0029634155E-02  3.7051740733E-01
  5.4750000000E+03  1.9162419838E+00  7.7396610573E+00  3.0713234510E-02  3.0111128189E-02  3.7075340783E-01
  5.4800000000E+03  1.9183960224E+00  7.7355914297E+00  3.0797683080E-02  3.0192765944E-02  3.7098916301E-01
  5.4850000000E+03  1.9205505147E+00  7.7315276505E+00  3.0882286221E-02  3.0274547528E-02  3.7122467341E-01
  5.4900000000E+03  1.9227054602E+00  7.7274697060E+00  3.0967044075E-02  3.0356473051E-02  3.7145993957E-01
  5.4950000000E+03  1.9248608586E+00  7.7234175825E+00  3.1051956782E-02  3.0438542620E-02  3.7169496205E-01
  5.5000000000E+03  1.9270203257E+00  7.7193712664E+00  3.1137024483E-02  3.0520757251E-02  3.7192974138E-01
  5.5050000000E+03  1.9291805731E+00  7.7153668996E+00  3.1222694523E-02  3.0603546445E-02  3.7216427811E-01
  5.5100000000E+03  1.9313412778E+00  7.7114128884E+00  3.1308521906E-02  3.0686482652E-02  3.7239857278E-01
  5.5150000000E+03  1.9335024394E+00  7.7074644872E+00  3.1394506779E-02  3.0769565285E-02  3.7263262593E-01
  5.5200000000E+03  1.9356640575E+00  7.7035216830E+00  3.1480649286E-02  3.0852794455E-02  3.7286643828E-01
  5.5250000000E+03  1.9378261319E+00  7.6995844628E+00  3.1566949573E-02  3.0936170273E-02  3.7310001053E-01
  5.5300000000E+03  1.9399886623E+00  7.6956528137E+00  3.1653407784E-02  3.1019692852E-02  3.7333334332E-01
  5.5350000000E+03  1.9421516483E+00  7.6917267226E+00  3.1740024064E-02  3.1103362303E-02  3.7356643728E-01
  5.5400000000E+03  1.9443150896E+00  7.6878061769E+00  3.1826798559E-02  3.1187178737E-02  3.7379929306E-01
  5.5450000000E+03  1.9464789859E+00  7.6838911636E+00  3.1913731413E-02  3.1271142265E-02  3.7403191128E-01
  5.5500000000E+03  1.9486432667E+00  7.6799816699E+00  3.2000822771E-02  3.1355252981E-02  3.7426429258E-01
  5.5550000000E+03  1.9508079782E+00  7.6760776831E+00  3.2088072779E-02  3.1439511008E-02  3.7449643758E-01
  5.5600000000E+03  1.9529731436E+00  7.6721791906E+00  3.2175481581E-02  3.1523916462E-02  3.7472834692E-01
  5.5650000000E+03  1.9551387627E+00  7.6682861796E+00  3.2263049323E-02  3.1608469455E-02  3.7496002123E-01
  5.5700000000E+03  1.9573048350E+00  7.6643986375E+00  3.2350776149E-02  3.1693170098E-02  3.7519146111E-01
  5.5750000000E+03  1.9594713604E+00  7.6605165517E+00  3.2438662204E-02  3.1778018501E-02  3.7542266719E-01
  5.5800000000E+03  1.9616383384E+00  7.6566399098E+00  3.2526707634E-02  3.1863014776E-02  3.7565364010E-01
  5.5850000000E+03  1.9638057688E+00  7.6527686991E+00  3.2614912583E-02  3.1948159033E-02  3.7588438043E-01
  5.5900000000E+03  1.9659736513E+00  7.6489029073E+00  3.2703277197E-02  3.2033451382E-02  3.7611488882E-01
  5.5950000000E+03  1.9681419855E+00  7.6450992209E+00  3.2791801620E-02  3.2118892936E-02  3.7634516586E-01
  5.6000000000E+03  1.9703107915E+00  7.6413217912E+00  3.2880485997E-02  3.2204483192E-02  3.7657521216E-01
  5.6050000000E+03  1.9724800702E+00  7.6375495967E+00  3.2969330474E-02  3.2290221893E-02  3.7680502834E-01
  5.6100000000E+03  1.9746497997E+00  7.6337826254E+00  3.3058335195E-02  3.2376109143E-02  3.7703461499E-01
  5.6150000000E+03  1.9768199799E+00  7.6300208653E+00  3.3147500306E-02  3.2462145053E-02  3.7726397271E-01
  5.6200000000E+03  1.9789906103E+00  7.6262643048E+00  3.3236825952E-02  3.2548329734E-02  3.7749310211E-01
  5.6250000000E+03  1.9811616907E+00  7.6225129320E+00  3.3326312277E-02  3.2634663295E-02  3.7772200379E-01
  5.6300000000E+03  1.9833332207E+00  7.6187667351E+00  3.3415959426E-02  3.2721145846E-02  3.7795067832E-01
  5.6350000000E+03  1.9855052001E+00  7.6150257024E+00  3.3505767545E-02  3.2807777498E-02  3.7817912632E-01
  5.6400000000E+03  1.9876776285E+00  7.6112898221E+00  3.3595736778E-02  3.2894558360E-02  3.7840734836E-01
  5.6450000000E+03  1.9898505056E+00  7.6075590828E+00  3.3685867271E-02  3.2981488543E-02  3.7863534504E-01
  5.6500000000E+03  1.9920239253E+00  7.6038334726E+00  3.3776159168E-02  3.3068568182E-02  3.7886311693E-01
  5.6550000000E+03  1.9941984470E+00  7.6001129801E+00  3.3866612615E-02  3.3155797542E-02  3.7909066464E-01
  5.6600000000E+03  1.9963734174E+00  7.5963975937E+00  3.3957227757E-02  3.3243176553E-02  3.7931798872E-01
  5.6650000000E+03  1.9985488363E+00  7.5926873019E+00  3.4048004738E-02  3.3330705325E-02  3.7954508978E-01
  5.6700000000E+03  2.0007247034E+00  7.5889820932E+00  3.4138943703E-02  3.3418383967E-02  3.7977196837E-01
  5.6750000000E+03  2.0029010184E+00  7.5852819562E+00  3.4230044798E-02  3.3506212589E-02  3.7999862508E-01
  5.6800000000E+03  2.0050777809E+00  7.5815868795E+00  3.4321308168E-02  3.3594191301E-02  3.8022506048E-01
  5.6850000000E+03  2.0072549908E+00  7.5779510971E+00  3.4412733957E-02  3.3682321282E-02  3.8045127514E-01
  5.6900000000E+03  2.0094326476E+00  7.5743405836E+00  3.4504322311E-02  3.3770601986E-02  3.8067726963E-01
  5.6950000000E+03  2.0116107510E+00  7.5707349594E+00  3.4596073375E-02  3.3859033123E-02  3.8090304451E-01
  5.7000000000E+03  2.0137893008E+00  7.5671342136E+00  3.4687987293E-02  3.3947614801E-02  3.8112860035E-01
  5.7050000000E+03  2.0159683049E+00  7.5635383352E+00  3.4780064211E-02  3.4036347133E-02  3.8135393771E-01
  5.7100000000E+03  2.0181477587E+00  7.5599473135E+00  3.4872304273E-02  3.4125230225E-02  3.8157905716E-01
  5.7150000000E+03  2.0203276579E+00  7.5563611376E+00  3.4964707625E-02  3.4214264186E-02  3.8180395924E-01
  5.7200000000E+03  2.0225080024E+00  7.5527797968E+00  3.5057274412E-02  3.4303449124E-02  3.8202864452E-01
  5.7250000000E+03  2.0246887917E+00  7.5492032803E+00  3.5150004779E-02  3.4392785149E-02  3.8225311355E-01
  5.7300000000E+03  2.0268700257E+00  7.5456315774E+00  3.5242898870E-02  3.4482272369E-02  3.8247736688E-01
  5.7350000000E+03  2.0290517039E+00  7.5420646775E+00  3.5335956831E-02  3.4571910892E-02  3.8270140506E-01
  5.7400000000E+03  2.0312338261E+00  7.5385025699E+00  3.5429178807E-02  3.4661700828E-02  3.8292522864E-01
  5.7450000000E+03  2.0334163920E+00  7.5349452440E+00  3.5522564942E-02  3.4751642284E-02  3.8314883817E-01
  5.7500000000E+03  2.0355994014E+00  7.5313926893E+00  3.5616115382E-02  3.4841735369E-02  3.8337223419E-01
  5.7550000000E+03  2.0377829546E+00  7.5278448951E+00  3.5709830272E-02  3.4931980221E-02  3.8359541724E-01
  5.7600000000E+03  2.0399676906E+00  7.5243018511E+00  3.5803709757E-02  3.5022377136E-02  3.8381838786E-01
  5.7650000000E+03  2.0421528703E+00  7.5207635466E+00  3.5897753981E-02  3.5112926007E-02  3.8404114660E-01
  5.7700000000E+03  2.0443384932E+00  7.5172299714E+00  3.5991963091E-02  3.5203626942E-02  3.8426369398E-01
  5.7750000000E+03  2.0465245591E+00  7.5137322596E+00  3.6086337230E-02  3.5294480736E-02  3.8448603055E-01
  5.7800000000E+03  2.0487110677E+00  7.5102796577E+00  3.6180876544E-02  3.5385487714E-02  3.8470815683E-01
  5.7850000000E+03  2.0508980187E+00  7.5068316256E+00  3.6275581177E-02  3.5476647096E-02  3.8493007335E-01
  5.7900000000E+03  2.0530854119E+00  7.5033881533E+00  3.6370451276E-02  3.5567958990E-02  3.8515178066E-01
  5.7950000000E+03  2.0552732469E+00  7.4999492308E+00  3.6465486985E-02  3.5659423503E-02  3.8537327926E-01
  5.8000000000E+03  2.0574615234E+00  7.4965148484E+00  3.6560688448E-02  3.5751040743E-02  3.8559456969E-01
  5.8050000000E+03  2.0596502411E+00  7.4930849959E+00  3.6656055812E-02  3.5842810818E-02  3.8581565246E-01
  5.8100000000E+03  2.0618400970E+00  7.4896596636E+00  3.6751589220E-02  3.5934734048E-02  3.8603652811E-01
  5.8150000000E+03  2.0640311746E+00  7.4862388417E+00  3.6847288818E-02  3.6026810566E-02  3.8625719715E-01
  5.8200000000E+03  2.0662226945E+00  7.4828225203E+00  3.6943154751E-02  3.6119040245E-02  3.8647766010E-01
  5.8250000000E+03  2.0684146564E+00  7.4794106896E+00  3.7039187164E-02  3.6211423192E-02  3.8669791748E-01
  5.8300000000E+03  2.0706070599E+00  7.4760033400E+00  3.7135386203E-02  3.6303959514E-02  3.8691796979E-01
  5.8350000000E+03  2.0727999048E+00  7.4726004616E+00  3.7231752011E-02  3.6396649318E-02  3.8713781755E-01
  5.8400000000E+03  2.0749931908E+00  7.4692020448E+00  3.7328284734E-02  3.6489492712E-02  3.8735746127E-01
  5.8450000000E+03  2.0771869175E+00  7.4658080799E+00  3.7424984517E-02  3.6582489801E-02  3.8757690147E-01
  5.8500000000E+03  2.0793810847E+00  7.4624185573E+00  3.7521851505E-02  3.6675640695E-02  3.8779613863E-01
  5.8550000000E+03  2.0815756922E+00  7.4590334673E+00  3.7618885844E-02  3.6768945498E-02  3.8801517316E-01
  5.8600000000E+03  2.0837707396E+00  7.4556528005E+00  3.7716087677E-02  3.6862404318E-02  3.8823400561E-01
  5.8650000000E+03  2.0859665182E+00  7.4522765473E+00  3.7813457150E-02  3.6956017353E-02  3.8845263654E-01
  5.8700000000E+03  2.0881628478E+00  7.4489629849E+00  3.7910994409E-02  3.7049786096E-02  3.8867106652E-01
  5.8750000000E+03  2.0903596170E+00  7.4456641684E+00  3.8008699598E-02  3.7143709452E-02  3.8888929611E-01
  5.8800000000E+03  2.0925568255E+00  7.4423696173E+00  3.8106572862E-02  3.7237787269E-02  3.8910732588E-01
  5.8850000000E+03  2.0947544730E+00  7.4390793223E+00  3.8204614346E-02  3.7332019654E-02  3.8932515638E-01
  5.8900000000E+03  2.0969525592E+00  7.4357932745E+00  3.8302824195E-02  3.7426406714E-02  3.8954278818E-01
  5.8950000000E+03  2.0991510838E+00  7.4325114647E+00  3.8401202554E-02  3.7520948554E-02  3.8976022182E-01
  5.9000000000E+03  2.1013500465E+00  7.4292338838E+00  3.8499749569E-02  3.7615645282E-02  3.8997745787E-01
  5.9050000000E+03  2.1035494471E+00  7.4259605229E+00  3.8598465384E-02  3.7710497002E-02  3.9019449687E-01
  5.9100000000E+03  2.1057492852E+00  7.4226913729E+00  3.8697350144E-02  3.7805503822E-02  3.9041133937E-01
  5.9150000000E+03  2.1079495607E+00  7.4194264250E+00  3.8796403994E-02  3.7900665847E-02  3.9062798593E-01
  5.9200000000E+03  2.1101518291E+00  7.4161656700E+00  3.8895627080E-02  3.7995983688E-02  3.9084443708E-01
  5.9250000000E+03  2.1123547566E+00  7.4129090991E+00  3.8995019546E-02  3.8091457020E-02  3.9106069338E-01
  5.9300000000E+03  2.1145581226E+00  7.4096567035E+00  3.9094581537E-02  3.8187085880E-02  3.9127675535E-01
  5.9350000000E+03  2.1167619271E+00  7.4064084742E+00  3.9194313198E-02  3.8282870372E-02  3.9149262355E-01
  5.9400000000E+03  2.1189661696E+00  7.4031644024E+00  3.9294214675E-02  3.8378810602E-02  3.9170829851E-01
  5.9450000000E+03  2.1211708500E+00  7.3999244793E+00  3.9394286113E-02  3.8474906676E-02  3.9192378076E-01
  5.9500000000E+03  2.1233759678E+00  7.3966886961E+00  3.9494527655E-02  3.8571158700E-02  3.9213907083E-01
  5.9550000000E+03  2.1255815229E+00  7.3934570440E+00  3.9594939448E-02  3.8667566777E-02  3.9235416927E-01
  5.9600000000E+03  2.1277875150E+00  7.3902295143E+00  3.9695521637E-02  3.8764131014E-02  3.9256907660E-01
  5.9650000000E+03  2.1299939437E+00  7.3870695494E+00  3.9796274366E-02  3.8860853273E-02  3.9278379335E-01
  5.9700000000E+03  2.1322008088E+00  7.3839161087E+00  3.9897197780E-02  3.8957731989E-02  3.9299832004E-01
  5.9750000000E+03  2.1344078396E+00  7.3807666524E+00  3.9998292025E-02  3.9054767108E-02  3.9321265720E-01
  5.9800000000E+03  2.1366152855E+00  7.3776211722E+00  4.0099557246E-02  3.9151958819E-02  3.9342680535E-01
  5.9850000000E+03  2.1388231666E+00  7.3744796597E+00  4.0200993587E-02  3.9249307232E-02  3.9364076501E-01
  5.9900000000E+03  2.1410314826E+00  7.3713421066E+00  4.0302601193E-02  3.9346812453E-02  3.9385453669E-01
  5.9950000000E+03  2.1432402333E+00  7.3682085047E+00  4.0404380210E-02  3.9444474587E-02  3.9406812093E-01
  6.0000000000E+03  2.1454494183E+00  7.3650788457E+00  4.0506330783E-02  3.9542293737E-02  3.9428151822E-01
  6.0050000000E+03  2.1476590374E+00  7.3619531212E+00  4.0609178031E-02  3.9640960827E-02  3.9449472908E-01
  6.0100000000E+03  2.1498690904E+00  7.3588313232E+00  4.0712200213E-02  3.9739787966E-02  3.9470775403E-01
  6.0150000000E+03  2.1520795769E+00  7.3557134434E+00  4.0815397481E-02  3.9838775264E-02  3.9492059358E-01
  6.0200000000E+03  2.1542904966E+00  7.3525994737E+00  4.0918769985E-02  3.9937922829E-02  3.9513324822E-01
  6.0250000000E+03  2.1565018494E+00  7.3494894059E+00  4.1022317877E-02  4.0037230771E-02  3.9534571847E-01
  6.0300000000E+03  2.1587216440E+00  7.3463832318E+00  4.1126041306E-02  4.0136701968E-02  3.9555800483E-01
  6.0350000000E+03  2.1609429737E+00  7.3432809435E+00  4.1229940425E-02  4.0236334156E-02  3.9577010780E-01
  6.0400000000E+03  2.1631647467E+00  7.3401825328E+00  4.1334015384E-02  4.0336127070E-02  3.9598202789E-01
  6.0450000000E+03  2.1653869627E+00  7.3370879916E+00  4.1438266334E-02  4.0436080818E-02  3.9619376559E-01
  6.0500000000E+03  2.1676096215E+00  7.3339973120E+00  4.1542693426E-02  4.0536195509E-02  3.9640532139E-01
  6.0550000000E+03  2.1698327227E+00  7.3309104859E+00  4.1647296810E-02  4.0636471251E-02  3.9661669580E-01
  6.0600000000E+03  2.1720562662E+00  7.3278762733E+00  4.1752076639E-02  4.0736909659E-02  3.9682788930E-01
  6.0650000000E+03  2.1742802515E+00  7.3248602517E+00  4.1857033061E-02  4.0837509799E-02  3.9703890240E-01
  6.0700000000E+03  2.1765046785E+00  7.3218479553E+00  4.1962166230E-02  4.0938271334E-02  3.9724973557E-01
  6.0750000000E+03  2.1787295468E+00  7.3188393764E+00  4.2067476295E-02  4.1039194374E-02  3.9746038930E-01
  6.0800000000E+03  2.1809548563E+00  7.3158345075E+00  4.2172963407E-02  4.1140279026E-02  3.9767086409E-01
  6.0850000000E+03  2.1832239828E+00  7.3128333408E+00  4.2278627717E-02  4.1241540876E-02  3.9788116042E-01
  6.0900000000E+03  2.1855096572E+00  7.3098358687E+00  4.2384469377E-02  4.1342970408E-02  3.9809127877E-01
  6.0950000000E+03  2.1877958458E+00  7.3068420838E+00  4.2490488537E-02  4.1444562024E-02  3.9830121962E-01
  6.1000000000E+03  2.1900825482E+00  7.3038519784E+00  4.2596685349E-02  4.1546315833E-02  3.9851098346E-01
  6.1050000000E+03  2.1923697642E+00  7.3008655450E+00  4.2703059962E-02  4.1648231943E-02  3.9872057075E-01
  6.1100000000E+03  2.1946574934E+00  7.2978827761E+00  4.2809612528E-02  4.1750310463E-02  3.9892998198E-01
  6.1150000000E+03  2.1969457356E+00  7.2949036643E+00  4.2916343199E-02  4.1852551500E-02  3.9913921763E-01
  6.1200000000E+03  2.1992344904E+00  7.2919282019E+00  4.3023252124E-02  4.1954955163E-02  3.9934827816E-01
  6.1250000000E+03  2.2015237576E+00  7.2889563817E+00  4.3130339455E-02  4.2057521560E-02  3.9955716404E-01
  6.1300000000E+03  2.2038135369E+00  7.2859881961E+00  4.3237605343E-02  4.2160250799E-02  3.9976587576E-01
  6.1350000000E+03  2.2061038278E+00  7.2830236378E+00  4.3345049939E-02  4.2263142987E-02  3.9997441377E-01
  6.1400000000E+03  2.2083947057E+00  7.2800626994E+00  4.3452673394E-02  4.2366198261E-02  4.0018277854E-01
  6.1450000000E+03  2.2106861781E+00  7.2771053735E+00  4.3560475859E-02  4.2469416731E-02  4.0039097055E-01
  6.1500000000E+03  2.2129781614E+00  7.2741516527E+00  4.3668457484E-02  4.2572798475E-02  4.0059899024E-01
  6.1550000000E+03  2.2152706555E+00  7.2712179995E+00  4.3776618422E-02  4.2676344166E-02  4.0080683809E-01
  6.1600000000E+03  2.2175636600E+00  7.2683318790E+00  4.3884958821E-02  4.2780054875E-02  4.0101451456E-01
  6.1650000000E+03  2.2198571746E+00  7.2654492444E+00  4.3993478835E-02  4.2883929199E-02  4.0122202010E-01
  6.1700000000E+03  2.2221511991E+00  7.2625700886E+00  4.4102178613E-02  4.2987967248E-02  4.0142935534E-01
  6.1750000000E+03  2.2244457330E+00  7.2596944047E+00  4.4211058307E-02  4.3092169127E-02  4.0163652088E-01
  6.1800000000E+03  2.2267407762E+00  7.2568221855E+00  4.4320118068E-02  4.3196534944E-02  4.0184351719E-01
  6.1850000000E+03  2.2290363284E+00  7.2539534242E+00  4.4429358046E-02  4.3301064806E-02  4.0205034478E-01
  6.1900000000E+03  2.2313323891E+00  7.2510881138E+00  4.4538778393E-02  4.3405758820E-02  4.0225700415E-01
  6.1950000000E+03  2.2336289819E+00  7.2482262473E+00  4.4648379260E-02  4.3510617103E-02  4.0246349577E-01
  6.2000000000E+03  2.2359262596E+00  7.2453678179E+00  4.4758160797E-02  4.3615639819E-02  4.0266982015E-01
  6.2050000000E+03  2.2382240454E+00  7.2425128186E+00  4.4868123156E-02  4.3720827009E-02  4.0287597777E-01
  6.2100000000E+03  2.2405223388E+00  7.2396612426E+00  4.4978266488E-02  4.3826178779E-02  4.0308196911E-01
  6.2150000000E+03  2.2428211396E+00  7.2368130831E+00  4.5088590943E-02  4.3931695236E-02  4.0328779467E-01
  6.2200000000E+03  2.2451204475E+00  7.2339683331E+00  4.5199096673E-02  4.4037376487E-02  4.0349345492E-01
  6.2250000000E+03  2.2474202622E+00  7.2311269859E+00  4.5309783829E-02  4.4143222637E-02  4.0369895034E-01
  6.2300000000E+03  2.2497205834E+00  7.2282890346E+00  4.5420652561E-02  4.4249233794E-02  4.0390428142E-01
  6.2350000000E+03  2.2520214108E+00  7.2254544725E+00  4.5531703022E-02  4.4355410064E-02  4.0410944862E-01
  6.2400000000E+03  2.2543227441E+00  7.2226232929E+00  4.5642935361E-02  4.4461751552E-02  4.0431445244E-01
  6.2450000000E+03  2.2566245831E+00  7.2197954890E+00  4.5754349730E-02  4.4568258366E-02  4.0451929334E-01
  6.2500000000E+03  2.2589269274E+00  7.2169710540E+00  4.5865946280E-02  4.4674930610E-02  4.0472397179E-01
  6.2550000000E+03  2.2612299066E+00  7.2141765297E+00  4.5977725161E-02  4.4781769466E-02  4.0492848827E-01
  6.2600000000E+03  2.2635334596E+00  7.2114165477E+00  4.6089686526E-02  4.4888775211E-02  4.0513284324E-01
  6.2650000000E+03  2.2658375173E+00  7.2086598240E+00  4.6201830525E-02  4.4995946728E-02  4.0533703718E-01
  6.2700000000E+03  2.2681420794E+00  7.2059063520E+00  4.6314157308E-02  4.5103284120E-02  4.0554107055E-01
  6.2750000000E+03  2.2704471456E+00  7.2031561254E+00  4.6426667028E-02  4.5210787495E-02  4.0574494381E-01
  6.2800000000E+03  2.2727527156E+00  7.2004091378E+00  4.6539359835E-02  4.5318456958E-02  4.0594865744E-01
  6.2850000000E+03  2.2750587891E+00  7.1976653827E+00  4.6652235880E-02  4.5426292614E-02  4.0615221188E-01
  6.2900000000E+03  2.2773653659E+00  7.1949248538E+00  4.6765295314E-02  4.5534294569E-02  4.0635560761E-01
  6.2950000000E+03  2.2796724456E+00  7.1921875447E+00  4.6878538289E-02  4.5642462929E-02  4.0655884507E-01
  6.3000000000E+03  2.2819800279E+00  7.1894534492E+00  4.6991964955E-02  4.5750797798E-02  4.0676192473E-01
  6.3050000000E+03  2.2842881127E+00  7.1867225608E+00  4.7105575463E-02  4.5859299282E-02  4.0696484704E-01
  6.3100000000E+03  2.2865966523E+00  7.1839948733E+00  4.7219369965E-02  4.5967967466E-02  4.0716761246E-01
  6.3150000000E+03  2.2889051918E+00  7.1812703804E+00  4.7333348612E-02  4.6076802273E-02  4.0737022144E-01
  6.3200000000E+03  2.2912142321E+00  7.1785490758E+00  4.7447511554E-02  4.6185804008E-02  4.0757267442E-01
  6.3250000000E+03  2.2935237730E+00  7.1758309533E+00  4.7561858943E-02  4.6294972776E-02  4.0777497187E-01
  6.3300000000E+03  2.2958338141E+00  7.1731160067E+00  4.7676390929E-02  4.6404308682E-02  4.0797711422E-01
  6.3350000000E+03  2.2981443552E+00  7.1704042297E+00  4.7791107665E-02  4.6513811831E-02  4.0817910192E-01
  6.3400000000E+03  2.3004553960E+00  7.1676956161E+00  4.7906009300E-02  4.6623482328E-02  4.0838093543E-01
  6.3450000000E+03  2.3027669361E+00  7.1649901598E+00  4.8021095986E-02  4.6733320277E-02  4.0858261517E-01
  6.3500000000E+03  2.3050789754E+00  7.1622878545E+00  4.8136367875E-02  4.6843325782E-02  4.0878414160E-01
