#[MATERIAL DEFINITION FOR MC-GPU: interaction mean free path and sampling data from PENELOPE 2018]
#[MATERIAL NAME]
# skin                                                          
#[NOMINAL DENSITY (g/cm^3)]
#   1.09000000
#[NUMBER OF DATA VALUES]
#  23002
#[MEAN FREE PATHS (cm) (ie, average distance between interactions)]
#[Energy (eV)     | Rayleigh        | Compton         | Photoelectric   | TOTAL (+pair prod) (cm) | Rayleigh: max cumul prob F^2]
  5.0000000000E+03  1.7246807476E+00  7.8781003607E+00  2.4388950593E-02  2.3975683416E-02  3.4729393229E-01
  5.0050000000E+03  1.7267234597E+00  7.8731183994E+00  2.4462732120E-02  2.4047332237E-02  3.4755450463E-01
  5.0100000000E+03  1.7287665480E+00  7.8681445583E+00  2.4536662643E-02  2.4119121035E-02  3.4781478268E-01
  5.0150000000E+03  1.7308117008E+00  7.8631788161E+00  2.4610742314E-02  2.4191050259E-02  3.4807476711E-01
  5.0200000000E+03  1.7328582411E+00  7.8582211517E+00  2.4684971282E-02  2.4263119902E-02  3.4833445855E-01
  5.0250000000E+03  1.7349051603E+00  7.8532715438E+00  2.4759349699E-02  2.4335329889E-02  3.4859385764E-01
  5.0300000000E+03  1.7369524581E+00  7.8483299714E+00  2.4833877717E-02  2.4407680339E-02  3.4885296504E-01
  5.0350000000E+03  1.7390001341E+00  7.8433964135E+00  2.4908555486E-02  2.4480171375E-02  3.4911178137E-01
  5.0400000000E+03  1.7410481881E+00  7.8384708490E+00  2.4983383158E-02  2.4552803116E-02  3.4937030727E-01
  5.0450000000E+03  1.7430966197E+00  7.8335532572E+00  2.5058360883E-02  2.4625575684E-02  3.4962854338E-01
  5.0500000000E+03  1.7451454287E+00  7.8286436173E+00  2.5133488813E-02  2.4698489198E-02  3.4988649033E-01
  5.0550000000E+03  1.7471946148E+00  7.8237419086E+00  2.5208767099E-02  2.4771543779E-02  3.5014414875E-01
  5.0600000000E+03  1.7492444529E+00  7.8188481103E+00  2.5284195891E-02  2.4844739604E-02  3.5040151926E-01
  5.0650000000E+03  1.7512951795E+00  7.8139622020E+00  2.5359775341E-02  2.4918076841E-02  3.5065860250E-01
  5.0700000000E+03  1.7533462833E+00  7.8090841631E+00  2.5435505600E-02  2.4991555507E-02  3.5091539909E-01
  5.0750000000E+03  1.7553977640E+00  7.8042139733E+00  2.5511386819E-02  2.5065175723E-02  3.5117190964E-01
  5.0800000000E+03  1.7574496213E+00  7.7993516122E+00  2.5587419149E-02  2.5138937608E-02  3.5142813479E-01
  5.0850000000E+03  1.7595018549E+00  7.7945813202E+00  2.5663602742E-02  2.5212842165E-02  3.5168407513E-01
  5.0900000000E+03  1.7615544645E+00  7.7898267996E+00  2.5739937747E-02  2.5286888729E-02  3.5193973130E-01
  5.0950000000E+03  1.7636074497E+00  7.7850798430E+00  2.5816424317E-02  2.5361077333E-02  3.5219510391E-01
  5.1000000000E+03  1.7656608104E+00  7.7803404311E+00  2.5893062602E-02  2.5435408099E-02  3.5245019356E-01
  5.1050000000E+03  1.7677145462E+00  7.7756085444E+00  2.5969852754E-02  2.5509881146E-02  3.5270500086E-01
  5.1100000000E+03  1.7697687217E+00  7.7708841636E+00  2.6046794923E-02  2.5584496607E-02  3.5295952643E-01
  5.1150000000E+03  1.7718232725E+00  7.7661672695E+00  2.6123889262E-02  2.5659254589E-02  3.5321377086E-01
  5.1200000000E+03  1.7738781975E+00  7.7614578429E+00  2.6201135919E-02  2.5734155210E-02  3.5346773477E-01
  5.1250000000E+03  1.7759334965E+00  7.7567558648E+00  2.6278535048E-02  2.5809198592E-02  3.5372141874E-01
  5.1300000000E+03  1.7779891693E+00  7.7520613161E+00  2.6356086799E-02  2.5884384852E-02  3.5397482339E-01
  5.1350000000E+03  1.7800452154E+00  7.7473741778E+00  2.6433791322E-02  2.5959714111E-02  3.5422794931E-01
  5.1400000000E+03  1.7821016346E+00  7.7426944311E+00  2.6511648770E-02  2.6035186487E-02  3.5448079710E-01
  5.1450000000E+03  1.7841584267E+00  7.7380220571E+00  2.6589659293E-02  2.6110802100E-02  3.5473336734E-01
  5.1500000000E+03  1.7862155912E+00  7.7333570371E+00  2.6667823042E-02  2.6186561068E-02  3.5498566063E-01
  5.1550000000E+03  1.7882734857E+00  7.7286993523E+00  2.6746140169E-02  2.6262463589E-02  3.5523767756E-01
  5.1600000000E+03  1.7903320552E+00  7.7240489841E+00  2.6824610824E-02  2.6338509770E-02  3.5548941876E-01
  5.1650000000E+03  1.7923909972E+00  7.7194554112E+00  2.6903235159E-02  2.6414700245E-02  3.5574088504E-01
  5.1700000000E+03  1.7944503114E+00  7.7149088353E+00  2.6982013324E-02  2.6491035029E-02  3.5599207713E-01
  5.1750000000E+03  1.7965099976E+00  7.7103693282E+00  2.7060945471E-02  2.6567513776E-02  3.5624299571E-01
  5.1800000000E+03  1.7985700553E+00  7.7058368722E+00  2.7140031751E-02  2.6644136607E-02  3.5649364147E-01
  5.1850000000E+03  1.8006304844E+00  7.7013114496E+00  2.7219272315E-02  2.6720903639E-02  3.5674401508E-01
  5.1900000000E+03  1.8026912846E+00  7.6967930426E+00  2.7298667314E-02  2.6797814991E-02  3.5699411724E-01
  5.1950000000E+03  1.8047524555E+00  7.6922816337E+00  2.7378216899E-02  2.6874870781E-02  3.5724394861E-01
  5.2000000000E+03  1.8068140035E+00  7.6877772053E+00  2.7457921221E-02  2.6952071130E-02  3.5749350988E-01
  5.2050000000E+03  1.8088767490E+00  7.6832797399E+00  2.7537780432E-02  2.7029416339E-02  3.5774280171E-01
  5.2100000000E+03  1.8109398654E+00  7.6787892200E+00  2.7617794682E-02  2.7106906343E-02  3.5799182477E-01
  5.2150000000E+03  1.8130033526E+00  7.6743056283E+00  2.7697964123E-02  2.7184541260E-02  3.5824057974E-01
  5.2200000000E+03  1.8150672101E+00  7.6698289475E+00  2.7778288905E-02  2.7262321209E-02  3.5848906727E-01
  5.2250000000E+03  1.8171314378E+00  7.6653591603E+00  2.7858769180E-02  2.7340246308E-02  3.5873728804E-01
  5.2300000000E+03  1.8191960353E+00  7.6608962495E+00  2.7939405099E-02  2.7418316674E-02  3.5898524269E-01
  5.2350000000E+03  1.8212610023E+00  7.6564401979E+00  2.8020196813E-02  2.7496532426E-02  3.5923293189E-01
  5.2400000000E+03  1.8233263386E+00  7.6519909886E+00  2.8101144473E-02  2.7574893681E-02  3.5948035628E-01
  5.2450000000E+03  1.8253920439E+00  7.6475486044E+00  2.8182248230E-02  2.7653400557E-02  3.5972751654E-01
  5.2500000000E+03  1.8274595723E+00  7.6431935691E+00  2.8263508235E-02  2.7732054567E-02  3.5997441329E-01
  5.2550000000E+03  1.8295297860E+00  7.6388509425E+00  2.8344924640E-02  2.7810855061E-02  3.6022104720E-01
  5.2600000000E+03  1.8316003728E+00  7.6345149097E+00  2.8426497595E-02  2.7889801548E-02  3.6046741891E-01
  5.2650000000E+03  1.8336713323E+00  7.6301854544E+00  2.8508227251E-02  2.7968894147E-02  3.6071352905E-01
  5.2700000000E+03  1.8357426643E+00  7.6258625604E+00  2.8590113761E-02  2.8048132976E-02  3.6095937828E-01
  5.2750000000E+03  1.8378143685E+00  7.6215462115E+00  2.8672157274E-02  2.8127518151E-02  3.6120496722E-01
  5.2800000000E+03  1.8398864446E+00  7.6172363917E+00  2.8754357942E-02  2.8207049790E-02  3.6145029651E-01
  5.2850000000E+03  1.8419588924E+00  7.6129330848E+00  2.8836715916E-02  2.8286728011E-02  3.6169536680E-01
  5.2900000000E+03  1.8440317114E+00  7.6086362749E+00  2.8919231347E-02  2.8366552930E-02  3.6194017870E-01
  5.2950000000E+03  1.8461049015E+00  7.6043459461E+00  2.9001904386E-02  2.8446524665E-02  3.6218473284E-01
  5.3000000000E+03  1.8481785633E+00  7.6000620825E+00  2.9084735185E-02  2.8526643356E-02  3.6242902987E-01
  5.3050000000E+03  1.8502526446E+00  7.5957846683E+00  2.9167723894E-02  2.8606909108E-02  3.6267307039E-01
  5.3100000000E+03  1.8523270962E+00  7.5915136876E+00  2.9250870664E-02  2.8687322028E-02  3.6291685502E-01
  5.3150000000E+03  1.8544019180E+00  7.5872491247E+00  2.9334175648E-02  2.8767882230E-02  3.6316038440E-01
  5.3200000000E+03  1.8564771096E+00  7.5829909641E+00  2.9417638995E-02  2.8848589833E-02  3.6340365914E-01
  5.3250000000E+03  1.8585526707E+00  7.5787391901E+00  2.9501260857E-02  2.8929444953E-02  3.6364667984E-01
  5.3300000000E+03  1.8606286011E+00  7.5744974915E+00  2.9585041384E-02  2.9010447760E-02  3.6388944713E-01
  5.3350000000E+03  1.8627049005E+00  7.5703418795E+00  2.9668980729E-02  2.9091599495E-02  3.6413196162E-01
  5.3400000000E+03  1.8647815685E+00  7.5661924370E+00  2.9753079043E-02  2.9172899110E-02  3.6437422391E-01
  5.3450000000E+03  1.8668586050E+00  7.5620491492E+00  2.9837336475E-02  2.9254346722E-02  3.6461623461E-01
  5.3500000000E+03  1.8689355089E+00  7.5579120010E+00  2.9921753178E-02  2.9335942323E-02  3.6485799433E-01
  5.3550000000E+03  1.8710127063E+00  7.5537809778E+00  3.0006329303E-02  2.9417686135E-02  3.6509950366E-01
  5.3600000000E+03  1.8730902706E+00  7.5496560648E+00  3.0091065000E-02  2.9499578290E-02  3.6534076321E-01
  5.3650000000E+03  1.8751682015E+00  7.5455372472E+00  3.0175960421E-02  2.9581618905E-02  3.6558177357E-01
  5.3700000000E+03  1.8772464987E+00  7.5414245103E+00  3.0261015717E-02  2.9663808097E-02  3.6582253534E-01
  5.3750000000E+03  1.8793251619E+00  7.5373178396E+00  3.0346231039E-02  2.9746145981E-02  3.6606304912E-01
  5.3800000000E+03  1.8814041908E+00  7.5332172204E+00  3.0431606538E-02  2.9828632673E-02  3.6630331549E-01
  5.3850000000E+03  1.8834835852E+00  7.5291226382E+00  3.0517142366E-02  2.9911268288E-02  3.6654333504E-01
  5.3900000000E+03  1.8855633448E+00  7.5250340786E+00  3.0602838673E-02  2.9994052943E-02  3.6678310836E-01
  5.3950000000E+03  1.8876434693E+00  7.5209515271E+00  3.0688695610E-02  3.0076986753E-02  3.6702263604E-01
  5.4000000000E+03  1.8897248763E+00  7.5168749692E+00  3.0774713329E-02  3.0160070067E-02  3.6726191865E-01
  5.4050000000E+03  1.8918066695E+00  7.5128043908E+00  3.0860891981E-02  3.0243302774E-02  3.6750095679E-01
  5.4100000000E+03  1.8938888279E+00  7.5087397775E+00  3.0947231716E-02  3.0326684984E-02  3.6773975102E-01
  5.4150000000E+03  1.8959713514E+00  7.5046811150E+00  3.1033732687E-02  3.0410216812E-02  3.6797830193E-01
  5.4200000000E+03  1.8980542396E+00  7.5006996983E+00  3.1120395044E-02  3.0493899553E-02  3.6821661009E-01
  5.4250000000E+03  1.9001374923E+00  7.4967334176E+00  3.1207218938E-02  3.0577732311E-02  3.6845467608E-01
  5.4300000000E+03  1.9022211092E+00  7.4927728853E+00  3.1294204520E-02  3.0661715048E-02  3.6869250045E-01
  5.4350000000E+03  1.9043050900E+00  7.4888180877E+00  3.1381351942E-02  3.0745847879E-02  3.6893008379E-01
  5.4400000000E+03  1.9063894344E+00  7.4848690112E+00  3.1468661355E-02  3.0830130918E-02  3.6916742666E-01
  5.4450000000E+03  1.9084741423E+00  7.4809256422E+00  3.1556132909E-02  3.0914564281E-02  3.6940452962E-01
  5.4500000000E+03  1.9106307967E+00  7.4769879674E+00  3.1643766756E-02  3.0999166927E-02  3.6964139323E-01
  5.4550000000E+03  1.9127883397E+00  7.4730559733E+00  3.1731563048E-02  3.1083920387E-02  3.6987801807E-01
  5.4600000000E+03  1.9149463389E+00  7.4691296465E+00  3.1819521934E-02  3.1168824663E-02  3.7011440468E-01
  5.4650000000E+03  1.9171047942E+00  7.4652089736E+00  3.1907643567E-02  3.1253879870E-02  3.7035055363E-01
  5.4700000000E+03  1.9192637052E+00  7.4612939413E+00  3.1995928097E-02  3.1339086124E-02  3.7058646546E-01
  5.4750000000E+03  1.9214230716E+00  7.4573845365E+00  3.2084375675E-02  3.1424443540E-02  3.7082214074E-01
  5.4800000000E+03  1.9235828930E+00  7.4534807458E+00  3.2172986453E-02  3.1509952232E-02  3.7105758001E-01
  5.4850000000E+03  1.9257431692E+00  7.4495825560E+00  3.2261760582E-02  3.1595612316E-02  3.7129278382E-01
  5.4900000000E+03  1.9279038998E+00  7.4456899542E+00  3.2350698213E-02  3.1681423906E-02  3.7152775272E-01
  5.4950000000E+03  1.9300650844E+00  7.4418029271E+00  3.2439799497E-02  3.1767387117E-02  3.7176248726E-01
  5.5000000000E+03  1.9322299589E+00  7.4379214618E+00  3.2529064585E-02  3.1853502943E-02  3.7199698798E-01
  5.5050000000E+03  1.9343955803E+00  7.4340803859E+00  3.2618947539E-02  3.1940206564E-02  3.7223125542E-01
  5.5100000000E+03  1.9365616595E+00  7.4302878003E+00  3.2708996702E-02  3.2027064910E-02  3.7246529012E-01
  5.5150000000E+03  1.9387281963E+00  7.4265005869E+00  3.2799212232E-02  3.2114077307E-02  3.7269909263E-01
  5.5200000000E+03  1.9408951903E+00  7.4227187333E+00  3.2889594281E-02  3.2201243872E-02  3.7293266365E-01
  5.5250000000E+03  1.9430626411E+00  7.4189422269E+00  3.2980143008E-02  3.2288564725E-02  3.7316600385E-01
  5.5300000000E+03  1.9452305485E+00  7.4151710554E+00  3.3070858566E-02  3.2376039984E-02  3.7339911387E-01
  5.5350000000E+03  1.9473989122E+00  7.4114052065E+00  3.3161741112E-02  3.2463669764E-02  3.7363199434E-01
  5.5400000000E+03  1.9495677317E+00  7.4076446678E+00  3.3252790800E-02  3.2551454185E-02  3.7386464587E-01
  5.5450000000E+03  1.9517370069E+00  7.4038894271E+00  3.3344007787E-02  3.2639393364E-02  3.7409706910E-01
  5.5500000000E+03  1.9539068268E+00  7.4001394721E+00  3.3435392227E-02  3.2727487444E-02  3.7432926464E-01
  5.5550000000E+03  1.9560771318E+00  7.3963947907E+00  3.3526944277E-02  3.2815736525E-02  3.7456123312E-01
  5.5600000000E+03  1.9582478917E+00  7.3926553707E+00  3.3618664092E-02  3.2904140717E-02  3.7479297516E-01
  5.5650000000E+03  1.9604191061E+00  7.3889211999E+00  3.3710551827E-02  3.2992700136E-02  3.7502449136E-01
  5.5700000000E+03  1.9625907746E+00  7.3851922664E+00  3.3802607638E-02  3.3081414900E-02  3.7525578234E-01
  5.5750000000E+03  1.9647628971E+00  7.3814685580E+00  3.3894831681E-02  3.3170285126E-02  3.7548684871E-01
  5.5800000000E+03  1.9669354731E+00  7.3777500628E+00  3.3987224110E-02  3.3259310931E-02  3.7571769108E-01
  5.5850000000E+03  1.9691085024E+00  7.3740367688E+00  3.4079785082E-02  3.3348492432E-02  3.7594831006E-01
  5.5900000000E+03  1.9712819847E+00  7.3703286641E+00  3.4172514751E-02  3.3437829745E-02  3.7617870623E-01
  5.5950000000E+03  1.9734559196E+00  7.3666802846E+00  3.4265413274E-02  3.3527324118E-02  3.7640888022E-01
  5.6000000000E+03  1.9756301955E+00  7.3630571422E+00  3.4358480806E-02  3.3616974938E-02  3.7663883261E-01
  5.6050000000E+03  1.9778048045E+00  7.3594390128E+00  3.4451717503E-02  3.3706781902E-02  3.7686856400E-01
  5.6100000000E+03  1.9799798650E+00  7.3558258851E+00  3.4545123519E-02  3.3796745162E-02  3.7709807499E-01
  5.6150000000E+03  1.9821553765E+00  7.3522177477E+00  3.4638699011E-02  3.3886864835E-02  3.7732736617E-01
  5.6200000000E+03  1.9843313389E+00  7.3486145894E+00  3.4732444134E-02  3.3977141036E-02  3.7755643813E-01
  5.6250000000E+03  1.9865077517E+00  7.3450163987E+00  3.4826359044E-02  3.4067573881E-02  3.7778529145E-01
  5.6300000000E+03  1.9886846147E+00  7.3414231645E+00  3.4920443896E-02  3.4158163488E-02  3.7801392672E-01
  5.6350000000E+03  1.9908619275E+00  7.3378348755E+00  3.5014698846E-02  3.4248909973E-02  3.7824234452E-01
  5.6400000000E+03  1.9930396900E+00  7.3342515206E+00  3.5109124048E-02  3.4339813451E-02  3.7847054545E-01
  5.6450000000E+03  1.9952179016E+00  7.3306730886E+00  3.5203719660E-02  3.4430874039E-02  3.7869853006E-01
  5.6500000000E+03  1.9973967199E+00  7.3270995683E+00  3.5298485836E-02  3.4522091899E-02  3.7892629894E-01
  5.6550000000E+03  1.9995770806E+00  7.3235309488E+00  3.5393422732E-02  3.4613467428E-02  3.7915385267E-01
  5.6600000000E+03  2.0017578914E+00  7.3199672188E+00  3.5488530504E-02  3.4705000418E-02  3.7938119182E-01
  5.6650000000E+03  2.0039391518E+00  7.3164083676E+00  3.5583809306E-02  3.4796690983E-02  3.7960831696E-01
  5.6700000000E+03  2.0061208616E+00  7.3128543840E+00  3.5679259295E-02  3.4888539240E-02  3.7983522865E-01
  5.6750000000E+03  2.0083030204E+00  7.3093052571E+00  3.5774880626E-02  3.4980545303E-02  3.8006192746E-01
  5.6800000000E+03  2.0104856280E+00  7.3057609761E+00  3.5870673455E-02  3.5072709288E-02  3.8028841397E-01
  5.6850000000E+03  2.0126686840E+00  7.3022736130E+00  3.5966637938E-02  3.5165032519E-02  3.8051468872E-01
  5.6900000000E+03  2.0148521882E+00  7.2988104992E+00  3.6062774229E-02  3.5257514371E-02  3.8074075228E-01
  5.6950000000E+03  2.0170361402E+00  7.2953520675E+00  3.6159082485E-02  3.5350154509E-02  3.8096660520E-01
  5.7000000000E+03  2.0192205397E+00  7.2918983074E+00  3.6255562860E-02  3.5442953047E-02  3.8119224805E-01
  5.7050000000E+03  2.0214050524E+00  7.2884492085E+00  3.6352215512E-02  3.5535909999E-02  3.8141768138E-01
  5.7100000000E+03  2.0235898484E+00  7.2850047604E+00  3.6449040594E-02  3.5629025530E-02  3.8164290574E-01
  5.7150000000E+03  2.0257750904E+00  7.2815649529E+00  3.6546038264E-02  3.5722299806E-02  3.8186792167E-01
  5.7200000000E+03  2.0279607780E+00  7.2781297755E+00  3.6643208675E-02  3.5815732942E-02  3.8209272974E-01
  5.7250000000E+03  2.0301469111E+00  7.2746992181E+00  3.6740551985E-02  3.5909325052E-02  3.8231733048E-01
  5.7300000000E+03  2.0323334893E+00  7.2712732704E+00  3.6838068348E-02  3.6003076252E-02  3.8254172443E-01
  5.7350000000E+03  2.0345205123E+00  7.2678519221E+00  3.6935757921E-02  3.6096986655E-02  3.8276591215E-01
  5.7400000000E+03  2.0367079798E+00  7.2644351632E+00  3.7033620858E-02  3.6191056377E-02  3.8298989416E-01
  5.7450000000E+03  2.0388958915E+00  7.2610229834E+00  3.7131657316E-02  3.6285285532E-02  3.8321367102E-01
  5.7500000000E+03  2.0410842472E+00  7.2576153727E+00  3.7229867450E-02  3.6379674234E-02  3.8343724325E-01
  5.7550000000E+03  2.0432731788E+00  7.2542123210E+00  3.7328251415E-02  3.6474222639E-02  3.8366061139E-01
  5.7600000000E+03  2.0454635254E+00  7.2508138182E+00  3.7426809368E-02  3.6568931131E-02  3.8388377598E-01
  5.7650000000E+03  2.0476543164E+00  7.2474198542E+00  3.7525541463E-02  3.6663799515E-02  3.8410673753E-01
  5.7700000000E+03  2.0498455516E+00  7.2440304192E+00  3.7624447857E-02  3.6758827906E-02  3.8432949659E-01
  5.7750000000E+03  2.0520372306E+00  7.2406753444E+00  3.7723528705E-02  3.6854017189E-02  3.8455205368E-01
  5.7800000000E+03  2.0542293531E+00  7.2373634894E+00  3.7822784162E-02  3.6949367726E-02  3.8477440933E-01
  5.7850000000E+03  2.0564219189E+00  7.2340560110E+00  3.7922214385E-02  3.7044878628E-02  3.8499656405E-01
  5.7900000000E+03  2.0586149277E+00  7.2307528995E+00  3.8021819529E-02  3.7140550011E-02  3.8521851837E-01
  5.7950000000E+03  2.0608083791E+00  7.2274541456E+00  3.8121599750E-02  3.7236381988E-02  3.8544027281E-01
  5.8000000000E+03  2.0630022729E+00  7.2241597396E+00  3.8221555202E-02  3.7332374672E-02  3.8566182789E-01
  5.8050000000E+03  2.0651966088E+00  7.2208696721E+00  3.8321686043E-02  3.7428528177E-02  3.8588318413E-01
  5.8100000000E+03  2.0673923523E+00  7.2175839336E+00  3.8421992427E-02  3.7524842935E-02  3.8610434203E-01
  5.8150000000E+03  2.0695896196E+00  7.2143025148E+00  3.8522474510E-02  3.7621319100E-02  3.8632530211E-01
  5.8200000000E+03  2.0717873307E+00  7.2110254062E+00  3.8623132449E-02  3.7717956431E-02  3.8654606489E-01
  5.8250000000E+03  2.0739854853E+00  7.2077525985E+00  3.8723966397E-02  3.7814755042E-02  3.8676663087E-01
  5.8300000000E+03  2.0761840831E+00  7.2044840824E+00  3.8824976512E-02  3.7911715044E-02  3.8698700055E-01
  5.8350000000E+03  2.0783831238E+00  7.2012198485E+00  3.8926162948E-02  3.8008836552E-02  3.8720717445E-01
  5.8400000000E+03  2.0805826071E+00  7.1979598877E+00  3.9027525862E-02  3.8106119678E-02  3.8742715306E-01
  5.8450000000E+03  2.0827825328E+00  7.1947041905E+00  3.9129065409E-02  3.8203564535E-02  3.8764693690E-01
  5.8500000000E+03  2.0849829005E+00  7.1914527479E+00  3.9230781744E-02  3.8301171236E-02  3.8786652644E-01
  5.8550000000E+03  2.0871837100E+00  7.1882055507E+00  3.9332675024E-02  3.8398939893E-02  3.8808592215E-01
  5.8600000000E+03  2.0893849610E+00  7.1849625896E+00  3.9434745404E-02  3.8496870619E-02  3.8830512454E-01
  5.8650000000E+03  2.0915867753E+00  7.1817238556E+00  3.9536993040E-02  3.8594963568E-02  3.8852413420E-01
  5.8700000000E+03  2.0937890774E+00  7.1785450673E+00  3.9639418087E-02  3.8693220447E-02  3.8874295166E-01
  5.8750000000E+03  2.0959918203E+00  7.1753803849E+00  3.9742020701E-02  3.8791640041E-02  3.8896157749E-01
  5.8800000000E+03  2.0981950037E+00  7.1722197881E+00  3.9844801038E-02  3.8890222173E-02  3.8918001224E-01
  5.8850000000E+03  2.1003986274E+00  7.1690632681E+00  3.9947759254E-02  3.8988966955E-02  3.8939825645E-01
  5.8900000000E+03  2.1026026910E+00  7.1659108162E+00  4.0050895503E-02  3.9087874501E-02  3.8961631068E-01
  5.8950000000E+03  2.1048071943E+00  7.1627624238E+00  4.0154209943E-02  3.9186944922E-02  3.8983417548E-01
  5.9000000000E+03  2.1070121369E+00  7.1596180821E+00  4.0257702728E-02  3.9286178329E-02  3.9005185137E-01
  5.9050000000E+03  2.1092175187E+00  7.1564777826E+00  4.0361374014E-02  3.9385574835E-02  3.9026933892E-01
  5.9100000000E+03  2.1114233393E+00  7.1533415166E+00  4.0465223957E-02  3.9485134552E-02  3.9048663866E-01
  5.9150000000E+03  2.1136295985E+00  7.1502092756E+00  4.0569252712E-02  3.9584857591E-02  3.9070375112E-01
  5.9200000000E+03  2.1158376614E+00  7.1470810509E+00  4.0673460436E-02  3.9684744544E-02  3.9092067684E-01
  5.9250000000E+03  2.1180463574E+00  7.1439568340E+00  4.0777847283E-02  3.9784795115E-02  3.9113741637E-01
  5.9300000000E+03  2.1202554930E+00  7.1408366165E+00  4.0882413411E-02  3.9885009346E-02  3.9135397022E-01
  5.9350000000E+03  2.1224650680E+00  7.1377203898E+00  4.0987158974E-02  3.9985387349E-02  3.9157033894E-01
  5.9400000000E+03  2.1246750820E+00  7.1346081455E+00  4.1092084127E-02  4.0085929236E-02  3.9178652304E-01
  5.9450000000E+03  2.1268855348E+00  7.1314998751E+00  4.1197189028E-02  4.0186635117E-02  3.9200252306E-01
  5.9500000000E+03  2.1290964261E+00  7.1283955703E+00  4.1302473831E-02  4.0287505105E-02  3.9221833953E-01
  5.9550000000E+03  2.1313077556E+00  7.1252952226E+00  4.1407938693E-02  4.0388539308E-02  3.9243397295E-01
  5.9600000000E+03  2.1335195230E+00  7.1221988237E+00  4.1513583768E-02  4.0489737840E-02  3.9264942387E-01
  5.9650000000E+03  2.1357317281E+00  7.1191668994E+00  4.1619409213E-02  4.0591102778E-02  3.9286469278E-01
  5.9700000000E+03  2.1379443705E+00  7.1161412154E+00  4.1725415183E-02  4.0692632364E-02  3.9307978023E-01
  5.9750000000E+03  2.1401572042E+00  7.1131193487E+00  4.1831601835E-02  4.0794326540E-02  3.9329468671E-01
  5.9800000000E+03  2.1423704558E+00  7.1101012914E+00  4.1937969323E-02  4.0896185501E-02  3.9350941274E-01
  5.9850000000E+03  2.1445841436E+00  7.1070870354E+00  4.2044517804E-02  4.0998209363E-02  3.9372395884E-01
  5.9900000000E+03  2.1467982674E+00  7.1040765728E+00  4.2151247433E-02  4.1100398236E-02  3.9393832551E-01
  5.9950000000E+03  2.1490128268E+00  7.1010698957E+00  4.2258158367E-02  4.1202752231E-02  3.9415251326E-01
  6.0000000000E+03  2.1512278215E+00  7.0980669961E+00  4.2365250760E-02  4.1305271459E-02  3.9436652261E-01
  6.0050000000E+03  2.1534432514E+00  7.0950678661E+00  4.2473263944E-02  4.1408658614E-02  3.9458035405E-01
  6.0100000000E+03  2.1556591160E+00  7.0920724980E+00  4.2581462057E-02  4.1512214092E-02  3.9479400809E-01
  6.0150000000E+03  2.1578754152E+00  7.0890808838E+00  4.2689845261E-02  4.1615938009E-02  3.9500748523E-01
  6.0200000000E+03  2.1600921487E+00  7.0860930157E+00  4.2798413717E-02  4.1719830479E-02  3.9522078597E-01
  6.0250000000E+03  2.1623093161E+00  7.0831088859E+00  4.2907167588E-02  4.1823891616E-02  3.9543391081E-01
  6.0300000000E+03  2.1645346410E+00  7.0801284867E+00  4.3016107035E-02  4.1928124434E-02  3.9564686024E-01
  6.0350000000E+03  2.1667614627E+00  7.0771518103E+00  4.3125232219E-02  4.2032526564E-02  3.9585963476E-01
  6.0400000000E+03  2.1689887282E+00  7.0741788490E+00  4.3234543303E-02  4.2137097729E-02  3.9607223486E-01
  6.0450000000E+03  2.1712164374E+00  7.0712095951E+00  4.3344040449E-02  4.2241838041E-02  3.9628466104E-01
  6.0500000000E+03  2.1734445899E+00  7.0682440408E+00  4.3453723818E-02  4.2346747616E-02  3.9649691378E-01
  6.0550000000E+03  2.1756731854E+00  7.0652821786E+00  4.3563593572E-02  4.2451826568E-02  3.9670899357E-01
  6.0600000000E+03  2.1779022238E+00  7.0623704701E+00  4.3673649873E-02  4.2557076697E-02  3.9692090089E-01
  6.0650000000E+03  2.1801317046E+00  7.0594761154E+00  4.3783892882E-02  4.2662496949E-02  3.9713263624E-01
  6.0700000000E+03  2.1823616277E+00  7.0565853306E+00  4.3894322763E-02  4.2768086942E-02  3.9734420010E-01
  6.0750000000E+03  2.1845919927E+00  7.0536981082E+00  4.4004939675E-02  4.2873846788E-02  3.9755559294E-01
  6.0800000000E+03  2.1868227994E+00  7.0508144411E+00  4.4115743783E-02  4.2979776601E-02  3.9776681524E-01
  6.0850000000E+03  2.1890943395E+00  7.0479343218E+00  4.4226735246E-02  4.3085892104E-02  3.9797786749E-01
  6.0900000000E+03  2.1913812826E+00  7.0450577432E+00  4.4337914227E-02  4.3192183704E-02  3.9818875016E-01
  6.0950000000E+03  2.1936687350E+00  7.0421846980E+00  4.4449280889E-02  4.3298645762E-02  3.9839946372E-01
  6.1000000000E+03  2.1959566965E+00  7.0393151789E+00  4.4560835392E-02  4.3405278392E-02  3.9861000866E-01
  6.1050000000E+03  2.1982451667E+00  7.0364491787E+00  4.4672577898E-02  4.3512081707E-02  3.9882038543E-01
  6.1100000000E+03  2.2005341454E+00  7.0335866902E+00  4.4784508571E-02  4.3619055822E-02  3.9903059451E-01
  6.1150000000E+03  2.2028236323E+00  7.0307277063E+00  4.4896627570E-02  4.3726200850E-02  3.9924063638E-01
  6.1200000000E+03  2.2051136270E+00  7.0278722199E+00  4.5008935059E-02  4.3833516904E-02  3.9945051149E-01
  6.1250000000E+03  2.2074041293E+00  7.0250202237E+00  4.5121431200E-02  4.3941004099E-02  3.9966022031E-01
  6.1300000000E+03  2.2096951388E+00  7.0221717106E+00  4.5234116153E-02  4.4048662547E-02  3.9986976331E-01
  6.1350000000E+03  2.2119866553E+00  7.0193266737E+00  4.5346990082E-02  4.4156492361E-02  4.0007914095E-01
  6.1400000000E+03  2.2142788424E+00  7.0164851057E+00  4.5460053147E-02  4.4264493722E-02  4.0028835368E-01
  6.1450000000E+03  2.2165717168E+00  7.0136469997E+00  4.5573305512E-02  4.4372666748E-02  4.0049740198E-01
  6.1500000000E+03  2.2188650976E+00  7.0108123487E+00  4.5686747337E-02  4.4481011481E-02  4.0070628629E-01
  6.1550000000E+03  2.2211589846E+00  7.0079968322E+00  4.5800378785E-02  4.4589528669E-02  4.0091500708E-01
  6.1600000000E+03  2.2234533775E+00  7.0052266099E+00  4.5914200018E-02  4.4698219501E-02  4.0112356479E-01
  6.1650000000E+03  2.2257482760E+00  7.0024597289E+00  4.6028211197E-02  4.4807082401E-02  4.0133195989E-01
  6.1700000000E+03  2.2280436798E+00  6.9996961826E+00  4.6142412485E-02  4.4916117483E-02  4.0154019305E-01
  6.1750000000E+03  2.2303395885E+00  6.9969359641E+00  4.6256804044E-02  4.5025324858E-02  4.0174826486E-01
  6.1800000000E+03  2.2326360019E+00  6.9941790669E+00  4.6371386035E-02  4.5134704639E-02  4.0195617580E-01
  6.1850000000E+03  2.2349329198E+00  6.9914254843E+00  4.6486158620E-02  4.5244256939E-02  4.0216392636E-01
  6.1900000000E+03  2.2372303417E+00  6.9886752095E+00  4.6601121962E-02  4.5353981870E-02  4.0237151702E-01
  6.1950000000E+03  2.2395282813E+00  6.9859282359E+00  4.6716276223E-02  4.5463879550E-02  4.0257894824E-01
  6.2000000000E+03  2.2418268286E+00  6.9831845570E+00  4.6831621564E-02  4.5573950129E-02  4.0278622051E-01
  6.2050000000E+03  2.2441258792E+00  6.9804441660E+00  4.6947158147E-02  4.5684193676E-02  4.0299333429E-01
  6.2100000000E+03  2.2464254329E+00  6.9777070565E+00  4.7062886135E-02  4.5794610303E-02  4.0320029006E-01
  6.2150000000E+03  2.2487254894E+00  6.9749732219E+00  4.7178805690E-02  4.5905200122E-02  4.0340708829E-01
  6.2200000000E+03  2.2510260483E+00  6.9722426556E+00  4.7294916973E-02  4.6015963245E-02  4.0361372944E-01
  6.2250000000E+03  2.2533271094E+00  6.9695153510E+00  4.7411220146E-02  4.6126899783E-02  4.0382021398E-01
  6.2300000000E+03  2.2556286723E+00  6.9667913018E+00  4.7527715371E-02  4.6238009848E-02  4.0402654238E-01
  6.2350000000E+03  2.2579307369E+00  6.9640705013E+00  4.7644402812E-02  4.6349293552E-02  4.0423271511E-01
  6.2400000000E+03  2.2602333027E+00  6.9613529431E+00  4.7761282628E-02  4.6460751006E-02  4.0443873261E-01
  6.2450000000E+03  2.2625363695E+00  6.9586386207E+00  4.7878354984E-02  4.6572382322E-02  4.0464459536E-01
  6.2500000000E+03  2.2648399370E+00  6.9559275278E+00  4.7995620040E-02  4.6684187610E-02  4.0485030380E-01
  6.2550000000E+03  2.2671442677E+00  6.9532449334E+00  4.8113077958E-02  4.6796168238E-02  4.0505585841E-01
  6.2600000000E+03  2.2694492380E+00  6.9505952471E+00  4.8230728901E-02  4.6908324487E-02  4.0526125963E-01
  6.2650000000E+03  2.2717547085E+00  6.9479486849E+00  4.8348573031E-02  4.7020655066E-02  4.0546650792E-01
  6.2700000000E+03  2.2740606791E+00  6.9453052405E+00  4.8466610510E-02  4.7133160088E-02  4.0567160373E-01
  6.2750000000E+03  2.2763671495E+00  6.9426649078E+00  4.8584841500E-02  4.7245839662E-02  4.0587654752E-01
  6.2800000000E+03  2.2786741193E+00  6.9400276807E+00  4.8703266163E-02  4.7358693899E-02  4.0608133973E-01
  6.2850000000E+03  2.2809815883E+00  6.9373935531E+00  4.8821884660E-02  4.7471722911E-02  4.0628598081E-01
  6.2900000000E+03  2.2832895561E+00  6.9347625187E+00  4.8940697155E-02  4.7584926808E-02  4.0649047121E-01
  6.2950000000E+03  2.2855980225E+00  6.9321345717E+00  4.9059703809E-02  4.7698305700E-02  4.0669481138E-01
  6.3000000000E+03  2.2879069872E+00  6.9295097058E+00  4.9178904785E-02  4.7811859698E-02  4.0689900175E-01
  6.3050000000E+03  2.2902164500E+00  6.9268879150E+00  4.9298300243E-02  4.7925588912E-02  4.0710304278E-01
  6.3100000000E+03  2.2925263313E+00  6.9242691934E+00  4.9417890348E-02  4.8039493418E-02  4.0730693489E-01
  6.3150000000E+03  2.2948358688E+00  6.9216535348E+00  4.9537675259E-02  4.8153572989E-02  4.0751067854E-01
  6.3200000000E+03  2.2971459022E+00  6.9190409332E+00  4.9657655141E-02  4.8267828104E-02  4.0771427417E-01
  6.3250000000E+03  2.2994564314E+00  6.9164313828E+00  4.9777830154E-02  4.8382258873E-02  4.0791772220E-01
  6.3300000000E+03  2.3017674561E+00  6.9138248775E+00  4.9898200462E-02  4.8496865405E-02  4.0812102307E-01
  6.3350000000E+03  2.3040789759E+00  6.9112214113E+00  5.0018766225E-02  4.8611647811E-02  4.0832417723E-01
  6.3400000000E+03  2.3063909906E+00  6.9086209783E+00  5.0139527607E-02  4.8726606199E-02  4.0852718509E-01
  6.3450000000E+03  2.3087034999E+00  6.9060235726E+00  5.0260484769E-02  4.8841740680E-02  4.0873004710E-01
  6.3500000000E+03  2.3110165035E+00  6.9034291884E+00  5.0381637874E-02  4.8957051362E-02  4.0893276368E-01
