#[MATERIAL DEFINITION FOR MC-GPU: interaction mean free path and sampling data from PENELOPE 2018]
#[MATERIAL NAME]
# thyroid                                                       
#[NOMINAL DENSITY (g/cm^3)]
#   1.04000000
#[NUMBER OF DATA VALUES]
#  23002
#[MEAN FREE PATHS (cm) (ie, average distance between interactions)]
#[Energy (eV)     | Rayleigh        | Compton         | Photoelectric   | TOTAL (+pair prod) (cm) | Rayleigh: max cumul prob F^2]
  5.0000000000E+03  1.7312851582E+00  8.2375907508E+00  2.3974281054E-02  2.3579141099E-02  3.4507356199E-01
  5.0050000000E+03  1.7333019489E+00  8.2323766903E+00  2.4046667783E-02  2.3649490761E-02  3.4533385517E-01
  5.0100000000E+03  1.7353190716E+00  8.2271711313E+00  2.4119200244E-02  2.3719977557E-02  3.4559384331E-01
  5.0150000000E+03  1.7373480927E+00  8.2219740516E+00  2.4191878581E-02  2.3790603774E-02  3.4585352705E-01
  5.0200000000E+03  1.7393843757E+00  8.2167854290E+00  2.4264702943E-02  2.3861368682E-02  3.4611290704E-01
  5.0250000000E+03  1.7414210146E+00  8.2116052412E+00  2.4337673475E-02  2.3932271108E-02  3.4637198395E-01
  5.0300000000E+03  1.7434580091E+00  8.2064334662E+00  2.4410790325E-02  2.4003311172E-02  3.4663075841E-01
  5.0350000000E+03  1.7454953590E+00  8.2012700820E+00  2.4484053639E-02  2.4074488990E-02  3.4688923107E-01
  5.0400000000E+03  1.7475330640E+00  8.1961150666E+00  2.4557463564E-02  2.4145804681E-02  3.4714740257E-01
  5.0450000000E+03  1.7495711237E+00  8.1909683982E+00  2.4631020247E-02  2.4217258364E-02  3.4740527355E-01
  5.0500000000E+03  1.7516095379E+00  8.1858300551E+00  2.4704723835E-02  2.4288850155E-02  3.4766284465E-01
  5.0550000000E+03  1.7536483063E+00  8.1807000154E+00  2.4778574473E-02  2.4360580172E-02  3.4792011651E-01
  5.0600000000E+03  1.7556891844E+00  8.1755782578E+00  2.4852572310E-02  2.4432448875E-02  3.4817708977E-01
  5.0650000000E+03  1.7577336815E+00  8.1704647605E+00  2.4926717492E-02  2.4504456676E-02  3.4843376504E-01
  5.0700000000E+03  1.7597785386E+00  8.1653595022E+00  2.5001010166E-02  2.4576603066E-02  3.4869014297E-01
  5.0750000000E+03  1.7618237555E+00  8.1602624614E+00  2.5075450477E-02  2.4648888161E-02  3.4894622417E-01
  5.0800000000E+03  1.7638693318E+00  8.1551736169E+00  2.5150038574E-02  2.4721312080E-02  3.4920200929E-01
  5.0850000000E+03  1.7659152673E+00  8.1501800409E+00  2.5224774603E-02  2.4793875745E-02  3.4945749893E-01
  5.0900000000E+03  1.7679615616E+00  8.1452028702E+00  2.5299658710E-02  2.4866578556E-02  3.4971269372E-01
  5.0950000000E+03  1.7700082145E+00  8.1402336213E+00  2.5374691043E-02  2.4939420554E-02  3.4996759429E-01
  5.1000000000E+03  1.7720552256E+00  8.1352722738E+00  2.5449871748E-02  2.5012401855E-02  3.5022220125E-01
  5.1050000000E+03  1.7741025948E+00  8.1303188075E+00  2.5525200972E-02  2.5085522576E-02  3.5047651520E-01
  5.1100000000E+03  1.7761430317E+00  8.1253732020E+00  2.5600678861E-02  2.5158781373E-02  3.5073053678E-01
  5.1150000000E+03  1.7781837426E+00  8.1204354372E+00  2.5676305563E-02  2.5232179797E-02  3.5098426659E-01
  5.1200000000E+03  1.7802248010E+00  8.1155054931E+00  2.5752081223E-02  2.5305717980E-02  3.5123770523E-01
  5.1250000000E+03  1.7822662064E+00  8.1105833496E+00  2.5828005990E-02  2.5379396040E-02  3.5149085333E-01
  5.1300000000E+03  1.7843079587E+00  8.1056689869E+00  2.5904080009E-02  2.5453214093E-02  3.5174371147E-01
  5.1350000000E+03  1.7863500576E+00  8.1007623850E+00  2.5980303428E-02  2.5527172256E-02  3.5199628027E-01
  5.1400000000E+03  1.7883925028E+00  8.0958635242E+00  2.6056676393E-02  2.5601270645E-02  3.5224856033E-01
  5.1450000000E+03  1.7904352939E+00  8.0909723847E+00  2.6133199050E-02  2.5675509378E-02  3.5250055224E-01
  5.1500000000E+03  1.7924784308E+00  8.0860889469E+00  2.6209871548E-02  2.5749888570E-02  3.5275225661E-01
  5.1550000000E+03  1.7945130657E+00  8.0812131912E+00  2.6286694031E-02  2.5824406506E-02  3.5300367403E-01
  5.1600000000E+03  1.7965405534E+00  8.0763450981E+00  2.6363666648E-02  2.5899063565E-02  3.5325480509E-01
  5.1650000000E+03  1.7985683648E+00  8.0715357889E+00  2.6440789544E-02  2.5973861934E-02  3.5350565039E-01
  5.1700000000E+03  1.8005964996E+00  8.0667751395E+00  2.6518062867E-02  2.6048801635E-02  3.5375621052E-01
  5.1750000000E+03  1.8026249576E+00  8.0620218957E+00  2.6595486764E-02  2.6123882360E-02  3.5400648621E-01
  5.1800000000E+03  1.8046537385E+00  8.0572760390E+00  2.6673061380E-02  2.6199104225E-02  3.5425647817E-01
  5.1850000000E+03  1.8066828421E+00  8.0525375508E+00  2.6750786864E-02  2.6274467346E-02  3.5450618706E-01
  5.1900000000E+03  1.8087122681E+00  8.0478064124E+00  2.6828663360E-02  2.6349971839E-02  3.5475561356E-01
  5.1950000000E+03  1.8107420163E+00  8.0430826054E+00  2.6906691018E-02  2.6425617820E-02  3.5500475832E-01
  5.2000000000E+03  1.8127720440E+00  8.0383661115E+00  2.6905599754E-02  2.6424946131E-02  3.5525362201E-01
  5.2050000000E+03  1.8147971482E+00  8.0336569123E+00  2.6980075794E-02  2.6497162426E-02  3.5550220528E-01
  5.2100000000E+03  1.8168225671E+00  8.0289549895E+00  2.7055827226E-02  2.6570604939E-02  3.5575050879E-01
  5.2150000000E+03  1.8188483003E+00  8.0242603249E+00  2.7132139112E-02  2.6644583940E-02  3.5599853319E-01
  5.2200000000E+03  1.8208743476E+00  8.0195729004E+00  2.7209657982E-02  2.6719722773E-02  3.5624627914E-01
  5.2250000000E+03  1.8229007089E+00  8.0148926979E+00  2.7287723827E-02  2.6795384780E-02  3.5649374728E-01
  5.2300000000E+03  1.8249273837E+00  8.0102196993E+00  2.7366476948E-02  2.6871705124E-02  3.5674093825E-01
  5.2350000000E+03  1.8269543720E+00  8.0055538867E+00  2.7445458339E-02  2.6948241136E-02  3.5698785271E-01
  5.2400000000E+03  1.8289816733E+00  8.0008952423E+00  2.7524651291E-02  2.7024976666E-02  3.5723449129E-01
  5.2450000000E+03  1.8310092876E+00  7.9962437481E+00  2.7603996706E-02  2.7101854708E-02  3.5748085463E-01
  5.2500000000E+03  1.8330399097E+00  7.9916825672E+00  2.7683494731E-02  2.7178876930E-02  3.5772694337E-01
  5.2550000000E+03  1.8350751378E+00  7.9871343025E+00  2.7763145514E-02  2.7256042927E-02  3.5797275814E-01
  5.2600000000E+03  1.8371106868E+00  7.9825929482E+00  2.7842949200E-02  2.7333351805E-02  3.5821829957E-01
  5.2650000000E+03  1.8391465564E+00  7.9780584871E+00  2.7922905939E-02  2.7410803681E-02  3.5846356830E-01
  5.2700000000E+03  1.8411827465E+00  7.9735309023E+00  2.8003001795E-02  2.7488385102E-02  3.5870856496E-01
  5.2750000000E+03  1.8432192568E+00  7.9690101769E+00  2.8083074225E-02  2.7565939431E-02  3.5895329016E-01
  5.2800000000E+03  1.8452560871E+00  7.9644962940E+00  2.8163299090E-02  2.7643636111E-02  3.5919774453E-01
  5.2850000000E+03  1.8472932370E+00  7.9599892367E+00  2.8243676534E-02  2.7721475256E-02  3.5944192869E-01
  5.2900000000E+03  1.8493307063E+00  7.9554889884E+00  2.8324206701E-02  2.7799456976E-02  3.5968584327E-01
  5.2950000000E+03  1.8513684948E+00  7.9509955322E+00  2.8404889736E-02  2.7877581386E-02  3.5992948887E-01
  5.3000000000E+03  1.8534129812E+00  7.9465088515E+00  2.8485725782E-02  2.7955850048E-02  3.6017286611E-01
  5.3050000000E+03  1.8554608815E+00  7.9420289298E+00  2.8566714985E-02  2.8034262340E-02  3.6041597560E-01
  5.3100000000E+03  1.8575091121E+00  7.9375557505E+00  2.8647857487E-02  2.8112817676E-02  3.6065881795E-01
  5.3150000000E+03  1.8595576729E+00  7.9330892971E+00  2.8729153435E-02  2.8191516167E-02  3.6090139378E-01
  5.3200000000E+03  1.8616065635E+00  7.9286295532E+00  2.8810602972E-02  2.8270357927E-02  3.6114370368E-01
  5.3250000000E+03  1.8636557836E+00  7.9241765024E+00  2.8892206242E-02  2.8349343066E-02  3.6138574826E-01
  5.3300000000E+03  1.8657053331E+00  7.9197339528E+00  2.8973963389E-02  2.8428471746E-02  3.6162752812E-01
  5.3350000000E+03  1.8677552116E+00  7.9153803738E+00  2.9055874559E-02  2.8507745099E-02  3.6186904386E-01
  5.3400000000E+03  1.8698054190E+00  7.9110332630E+00  2.9137939895E-02  2.8587162180E-02  3.6211029608E-01
  5.3450000000E+03  1.8718559549E+00  7.9066926046E+00  2.9220159541E-02  2.8666723101E-02  3.6235128537E-01
  5.3500000000E+03  1.8739114879E+00  7.9023583832E+00  2.9302561494E-02  2.8746455878E-02  3.6259201232E-01
  5.3550000000E+03  1.8759680405E+00  7.8980305831E+00  2.9385120179E-02  2.8826334938E-02  3.6283247753E-01
  5.3600000000E+03  1.8780249277E+00  7.8937091888E+00  2.9467833777E-02  2.8906358343E-02  3.6307268159E-01
  5.3650000000E+03  1.8800821491E+00  7.8893941850E+00  2.9550702434E-02  2.8986526204E-02  3.6331262507E-01
  5.3700000000E+03  1.8821397046E+00  7.8850855562E+00  2.9633726294E-02  2.9066838635E-02  3.6355230857E-01
  5.3750000000E+03  1.8841975937E+00  7.8807832870E+00  2.9716905502E-02  2.9147295747E-02  3.6379173267E-01
  5.3800000000E+03  1.8862558164E+00  7.8764873623E+00  2.9800240203E-02  2.9227897652E-02  3.6403089795E-01
  5.3850000000E+03  1.8883143723E+00  7.8721977667E+00  2.9883730541E-02  2.9308644461E-02  3.6426980498E-01
  5.3900000000E+03  1.8903732612E+00  7.8679144850E+00  2.9967376662E-02  2.9389536287E-02  3.6450845435E-01
  5.3950000000E+03  1.8924324828E+00  7.8636375022E+00  3.0051178709E-02  2.9470573240E-02  3.6474684662E-01
  5.4000000000E+03  1.8944945763E+00  7.8593668031E+00  3.0135136829E-02  2.9551756050E-02  3.6498498238E-01
  5.4050000000E+03  1.8965570623E+00  7.8551023727E+00  3.0219251164E-02  2.9633084230E-02  3.6522286219E-01
  5.4100000000E+03  1.8986198836E+00  7.8508441960E+00  3.0303521861E-02  2.9714557878E-02  3.6546048662E-01
  5.4150000000E+03  1.9006830398E+00  7.8465922581E+00  3.0387949064E-02  2.9796177103E-02  3.6569785623E-01
  5.4200000000E+03  1.9027465307E+00  7.8424201283E+00  3.0472532918E-02  2.9877943086E-02  3.6593497160E-01
  5.4250000000E+03  1.9048103560E+00  7.8382637149E+00  3.0557273567E-02  2.9959855023E-02  3.6617183328E-01
  5.4300000000E+03  1.9068745155E+00  7.8341133303E+00  3.0642171157E-02  3.0041912885E-02  3.6640844184E-01
  5.4350000000E+03  1.9089390090E+00  7.8299689603E+00  3.0727225831E-02  3.0124116783E-02  3.6664479783E-01
  5.4400000000E+03  1.9110038361E+00  7.8258305906E+00  3.0812437735E-02  3.0206466829E-02  3.6688090181E-01
  5.4450000000E+03  1.9130689966E+00  7.8216982071E+00  3.0897807013E-02  3.0288963133E-02  3.6711675434E-01
  5.4500000000E+03  1.9152172981E+00  7.8175717955E+00  3.0983333810E-02  3.0371626632E-02  3.6735235597E-01
  5.4550000000E+03  1.9173665390E+00  7.8134513419E+00  3.1069018271E-02  3.0454436899E-02  3.6758770724E-01
  5.4600000000E+03  1.9195162193E+00  7.8093368321E+00  3.1154860541E-02  3.0537393921E-02  3.6782280879E-01
  5.4650000000E+03  1.9216663388E+00  7.8052282522E+00  3.1240860764E-02  3.0620497808E-02  3.6805766125E-01
  5.4700000000E+03  1.9238168971E+00  7.8011255881E+00  3.1327019085E-02  3.0703748672E-02  3.6829226526E-01
  5.4750000000E+03  1.9259678940E+00  7.7970288260E+00  3.1413335649E-02  3.0787146625E-02  3.6852662145E-01
  5.4800000000E+03  1.9281193291E+00  7.7929379520E+00  3.1499810600E-02  3.0870691777E-02  3.6876073047E-01
  5.4850000000E+03  1.9302712021E+00  7.7888529523E+00  3.1586444083E-02  3.0954384239E-02  3.6899459295E-01
  5.4900000000E+03  1.9324235127E+00  7.7847738130E+00  3.1673236244E-02  3.1038224123E-02  3.6922820951E-01
  5.4950000000E+03  1.9345762606E+00  7.7807005206E+00  3.1760187225E-02  3.1122211538E-02  3.6946158077E-01
  5.5000000000E+03  1.9367329549E+00  7.7766330612E+00  3.1847297173E-02  3.1206347508E-02  3.6969470737E-01
  5.5050000000E+03  1.9388904043E+00  7.7726073813E+00  3.1935018301E-02  3.1291065925E-02  3.6992758993E-01
  5.5100000000E+03  1.9410482950E+00  7.7686318416E+00  3.2022900782E-02  3.1375934888E-02  3.7016022906E-01
  5.5150000000E+03  1.9432066268E+00  7.7646619384E+00  3.2110944764E-02  3.1460953797E-02  3.7039262538E-01
  5.5200000000E+03  1.9453653994E+00  7.7606976588E+00  3.2199150397E-02  3.1546122765E-02  3.7062477952E-01
  5.5250000000E+03  1.9475246125E+00  7.7567389896E+00  3.2287517829E-02  3.1631441905E-02  3.7085669207E-01
  5.5300000000E+03  1.9496842657E+00  7.7527859178E+00  3.2376047210E-02  3.1716911333E-02  3.7108836365E-01
  5.5350000000E+03  1.9518443588E+00  7.7488384306E+00  3.2464738689E-02  3.1802531163E-02  3.7131979487E-01
  5.5400000000E+03  1.9540048914E+00  7.7448965148E+00  3.2553592414E-02  3.1888301507E-02  3.7155098633E-01
  5.5450000000E+03  1.9561658633E+00  7.7409601577E+00  3.2642608535E-02  3.1974222480E-02  3.7178193864E-01
  5.5500000000E+03  1.9583290713E+00  7.7370293465E+00  3.2731787201E-02  3.2060294677E-02  3.7201265239E-01
  5.5550000000E+03  1.9604933261E+00  7.7331040682E+00  3.2821128561E-02  3.2146517896E-02  3.7224312820E-01
  5.5600000000E+03  1.9626580224E+00  7.7291843103E+00  3.2910632764E-02  3.2232892091E-02  3.7247336664E-01
  5.5650000000E+03  1.9648231598E+00  7.7252700598E+00  3.3000299958E-02  3.2319417373E-02  3.7270336833E-01
  5.5700000000E+03  1.9669887381E+00  7.7213613043E+00  3.3090130294E-02  3.2406093857E-02  3.7293313384E-01
  5.5750000000E+03  1.9691547569E+00  7.7174580310E+00  3.3180123919E-02  3.2492921656E-02  3.7316266378E-01
  5.5800000000E+03  1.9713212160E+00  7.7135602273E+00  3.3270280984E-02  3.2579900882E-02  3.7339195872E-01
  5.5850000000E+03  1.9734881150E+00  7.7096678807E+00  3.3360601636E-02  3.2667031650E-02  3.7362101926E-01
  5.5900000000E+03  1.9756554536E+00  7.7057809787E+00  3.3451086026E-02  3.2754314073E-02  3.7384984597E-01
  5.5950000000E+03  1.9778232315E+00  7.7019559575E+00  3.3541734302E-02  3.2841749289E-02  3.7407843944E-01
  5.6000000000E+03  1.9799920038E+00  7.6981571268E+00  3.3632546613E-02  3.2929336932E-02  3.7430680024E-01
  5.6050000000E+03  1.9821618079E+00  7.6943635575E+00  3.3723523108E-02  3.3017076749E-02  3.7453492896E-01
  5.6100000000E+03  1.9843320519E+00  7.6905752378E+00  3.3814663937E-02  3.3104968690E-02  3.7476282617E-01
  5.6150000000E+03  1.9865027355E+00  7.6867921556E+00  3.3905969248E-02  3.3193012868E-02  3.7499049244E-01
  5.6200000000E+03  1.9886738584E+00  7.6830142992E+00  3.3997439190E-02  3.3281209394E-02  3.7521792835E-01
  5.6250000000E+03  1.9908454203E+00  7.6792416565E+00  3.4089073913E-02  3.3369558383E-02  3.7544513445E-01
  5.6300000000E+03  1.9930174209E+00  7.6754742159E+00  3.4180873565E-02  3.3458059946E-02  3.7567211132E-01
  5.6350000000E+03  1.9951898599E+00  7.6717119655E+00  3.4272838296E-02  3.3546714196E-02  3.7589885952E-01
  5.6400000000E+03  1.9973627370E+00  7.6679548936E+00  3.4364968254E-02  3.3635521246E-02  3.7612537962E-01
  5.6450000000E+03  1.9995360518E+00  7.6642029884E+00  3.4457263589E-02  3.3724481207E-02  3.7635167217E-01
  5.6500000000E+03  2.0017100144E+00  7.6604562384E+00  3.4549724449E-02  3.3813594252E-02  3.7657773773E-01
  5.6550000000E+03  2.0038858737E+00  7.6567146318E+00  3.4642350984E-02  3.3902860852E-02  3.7680357687E-01
  5.6600000000E+03  2.0060621720E+00  7.6529781571E+00  3.4735143343E-02  3.3992280704E-02  3.7702919012E-01
  5.6650000000E+03  2.0082389090E+00  7.6492468026E+00  3.4828101674E-02  3.4081853919E-02  3.7725457805E-01
  5.6700000000E+03  2.0104160845E+00  7.6455205570E+00  3.4921226128E-02  3.4171580610E-02  3.7747974121E-01
  5.6750000000E+03  2.0125936981E+00  7.6417994086E+00  3.5014516852E-02  3.4261460889E-02  3.7770468014E-01
  5.6800000000E+03  2.0147717496E+00  7.6380833461E+00  3.5107973996E-02  3.4351494868E-02  3.7792939540E-01
  5.6850000000E+03  2.0169502386E+00  7.6344264330E+00  3.5201597709E-02  3.4441683758E-02  3.7815388751E-01
  5.6900000000E+03  2.0191291649E+00  7.6307947509E+00  3.5295388140E-02  3.4532026998E-02  3.7837815704E-01
  5.6950000000E+03  2.0213085281E+00  7.6271679841E+00  3.5389345438E-02  3.4622524288E-02  3.7860220451E-01
  5.7000000000E+03  2.0234883280E+00  7.6235461214E+00  3.5483469752E-02  3.4713175740E-02  3.7882603047E-01
  5.7050000000E+03  2.0256695550E+00  7.6199291521E+00  3.5577761231E-02  3.4803981759E-02  3.7904963545E-01
  5.7100000000E+03  2.0278517034E+00  7.6163170652E+00  3.5672220024E-02  3.4894942308E-02  3.7927302000E-01
  5.7150000000E+03  2.0300342893E+00  7.6127098498E+00  3.5766846281E-02  3.4986057356E-02  3.7949618463E-01
  5.7200000000E+03  2.0322173127E+00  7.6091074952E+00  3.5861640149E-02  3.5077327015E-02  3.7971912997E-01
  5.7250000000E+03  2.0344007731E+00  7.6055099906E+00  3.5956601780E-02  3.5168751397E-02  3.7994185664E-01
  5.7300000000E+03  2.0365846702E+00  7.6019173251E+00  3.6051731320E-02  3.5260330611E-02  3.8016436524E-01
  5.7350000000E+03  2.0387690039E+00  7.5983294881E+00  3.6147028920E-02  3.5352064770E-02  3.8038665633E-01
  5.7400000000E+03  2.0409537737E+00  7.5947464688E+00  3.6242494728E-02  3.5443953983E-02  3.8060873050E-01
  5.7450000000E+03  2.0431389794E+00  7.5911682567E+00  3.6338128894E-02  3.5535998363E-02  3.8083058833E-01
  5.7500000000E+03  2.0453246207E+00  7.5875948411E+00  3.6433931566E-02  3.5628198019E-02  3.8105223039E-01
  5.7550000000E+03  2.0475107643E+00  7.5840262114E+00  3.6529902894E-02  3.5720553083E-02  3.8127365726E-01
  5.7600000000E+03  2.0496978350E+00  7.5804623570E+00  3.6626043026E-02  3.5813063795E-02  3.8149486950E-01
  5.7650000000E+03  2.0518853412E+00  7.5769032674E+00  3.6722352113E-02  3.5905730117E-02  3.8171586768E-01
  5.7700000000E+03  2.0540732825E+00  7.5733489322E+00  3.6818830301E-02  3.5998552159E-02  3.8193665237E-01
  5.7750000000E+03  2.0562616586E+00  7.5698304286E+00  3.6915477742E-02  3.6091530739E-02  3.8215722414E-01
  5.7800000000E+03  2.0584504693E+00  7.5663569861E+00  3.7012294584E-02  3.6184666190E-02  3.8237758355E-01
  5.7850000000E+03  2.0606397142E+00  7.5628881387E+00  3.7109280975E-02  3.6277957709E-02  3.8259773115E-01
  5.7900000000E+03  2.0628293932E+00  7.5594238765E+00  3.7206437065E-02  3.6371405407E-02  3.8281766751E-01
  5.7950000000E+03  2.0650195058E+00  7.5559641893E+00  3.7303763003E-02  3.6465009393E-02  3.8303739318E-01
  5.8000000000E+03  2.0672100518E+00  7.5525090672E+00  3.7401258939E-02  3.6558769778E-02  3.8325690871E-01
  5.8050000000E+03  2.0694010309E+00  7.5490585003E+00  3.7498925020E-02  3.6652686671E-02  3.8347621466E-01
  5.8100000000E+03  2.0715940062E+00  7.5456124787E+00  3.7596761396E-02  3.6746760674E-02  3.8369531158E-01
  5.8150000000E+03  2.0737891658E+00  7.5421709923E+00  3.7694768217E-02  3.6840991962E-02  3.8391420001E-01
  5.8200000000E+03  2.0759847619E+00  7.5387340315E+00  3.7792945631E-02  3.6935380095E-02  3.8413288050E-01
  5.8250000000E+03  2.0781807940E+00  7.5353015863E+00  3.7891293787E-02  3.7029925183E-02  3.8435135359E-01
  5.8300000000E+03  2.0803772620E+00  7.5318736470E+00  3.7989812834E-02  3.7124627336E-02  3.8456961983E-01
  5.8350000000E+03  2.0825741656E+00  7.5284502037E+00  3.8088502922E-02  3.7219486664E-02  3.8478767976E-01
  5.8400000000E+03  2.0847715044E+00  7.5250312468E+00  3.8187364199E-02  3.7314503275E-02  3.8500553390E-01
  5.8450000000E+03  2.0869692782E+00  7.5216167665E+00  3.8286396814E-02  3.7409677279E-02  3.8522318281E-01
  5.8500000000E+03  2.0891674866E+00  7.5182067531E+00  3.8385600918E-02  3.7505008786E-02  3.8544062701E-01
  5.8550000000E+03  2.0913661295E+00  7.5148011970E+00  3.8484976657E-02  3.7600497905E-02  3.8565786703E-01
  5.8600000000E+03  2.0935652065E+00  7.5114000886E+00  3.8584524182E-02  3.7696144744E-02  3.8587490341E-01
  5.8650000000E+03  2.0957654114E+00  7.5080034182E+00  3.8684243642E-02  3.7791949638E-02  3.8609173667E-01
  5.8700000000E+03  2.0979663154E+00  7.5046694357E+00  3.8784135186E-02  3.7887914044E-02  3.8630836734E-01
  5.8750000000E+03  2.1001676539E+00  7.5013502185E+00  3.8884198962E-02  3.7984036783E-02  3.8652479595E-01
  5.8800000000E+03  2.1023694266E+00  7.4980352911E+00  3.8984435120E-02  3.8080317699E-02  3.8674102300E-01
  5.8850000000E+03  2.1045716331E+00  7.4947246444E+00  3.9084843809E-02  3.8176756899E-02  3.8695704904E-01
  5.8900000000E+03  2.1067742733E+00  7.4914182692E+00  3.9185425178E-02  3.8273354494E-02  3.8717287457E-01
  5.8950000000E+03  2.1089773468E+00  7.4881161564E+00  3.9286179376E-02  3.8370110591E-02  3.8738850010E-01
  5.9000000000E+03  2.1111808533E+00  7.4848182968E+00  3.9387106552E-02  3.8467025300E-02  3.8760392617E-01
  5.9050000000E+03  2.1133847926E+00  7.4815246814E+00  3.9488206855E-02  3.8564098728E-02  3.8781915327E-01
  5.9100000000E+03  2.1155891643E+00  7.4782353012E+00  3.9589480434E-02  3.8661330984E-02  3.8803418193E-01
  5.9150000000E+03  2.1177939683E+00  7.4749501470E+00  3.9690927438E-02  3.8758722177E-02  3.8824901264E-01
  5.9200000000E+03  2.1200001054E+00  7.4716692100E+00  3.9792548017E-02  3.8856272717E-02  3.8846364593E-01
  5.9250000000E+03  2.1222068028E+00  7.4683924812E+00  3.9894342318E-02  3.8953982455E-02  3.8867808228E-01
  5.9300000000E+03  2.1244139329E+00  7.4651199515E+00  3.9996310492E-02  3.9051851456E-02  3.8889232221E-01
  5.9350000000E+03  2.1266214953E+00  7.4618516122E+00  4.0098452688E-02  3.9149879828E-02  3.8910636622E-01
  5.9400000000E+03  2.1288294898E+00  7.4585874542E+00  4.0200769053E-02  3.9248067679E-02  3.8932021482E-01
  5.9450000000E+03  2.1310379161E+00  7.4553274688E+00  4.0303259739E-02  3.9346415117E-02  3.8953386849E-01
  5.9500000000E+03  2.1332467739E+00  7.4520716471E+00  4.0405924892E-02  3.9444922250E-02  3.8974732773E-01
  5.9550000000E+03  2.1354560630E+00  7.4488199803E+00  4.0508764664E-02  3.9543589185E-02  3.8996059305E-01
  5.9600000000E+03  2.1376657829E+00  7.4455724596E+00  4.0611779202E-02  3.9642416030E-02  3.9017366493E-01
  5.9650000000E+03  2.1398759336E+00  7.4423925825E+00  4.0714968655E-02  3.9741404702E-02  3.9038654386E-01
  5.9700000000E+03  2.1420865147E+00  7.4392192553E+00  4.0818333174E-02  3.9840553590E-02  3.9059923033E-01
  5.9750000000E+03  2.1442970271E+00  7.4360499361E+00  4.0921872906E-02  3.9939862556E-02  3.9081172456E-01
  5.9800000000E+03  2.1465079313E+00  7.4328846164E+00  4.1025588001E-02  4.0039331866E-02  3.9102402703E-01
  5.9850000000E+03  2.1487192643E+00  7.4297232880E+00  4.1129478608E-02  4.0138961640E-02  3.9123613828E-01
  5.9900000000E+03  2.1509310260E+00  7.4265659423E+00  4.1233544875E-02  4.0238751985E-02  3.9144805888E-01
  5.9950000000E+03  2.1531432161E+00  7.4234125711E+00  4.1337786953E-02  4.0338703008E-02  3.9165978937E-01
  6.0000000000E+03  2.1553558342E+00  7.4202631661E+00  4.1442204990E-02  4.0438814816E-02  3.9187133032E-01
  6.0050000000E+03  2.1575688802E+00  7.4171177190E+00  4.1547529564E-02  4.0539782943E-02  3.9208268227E-01
  6.0100000000E+03  2.1597823537E+00  7.4139762216E+00  4.1653033512E-02  4.0640914912E-02  3.9229384577E-01
  6.0150000000E+03  2.1619962545E+00  7.4108386655E+00  4.1758716987E-02  4.0742210833E-02  3.9250482137E-01
  6.0200000000E+03  2.1642105822E+00  7.4077050425E+00  4.1864580146E-02  4.0843670819E-02  3.9271560961E-01
  6.0250000000E+03  2.1664253367E+00  7.4045753446E+00  4.1970623142E-02  4.0945294980E-02  3.9292621102E-01
  6.0300000000E+03  2.1686513732E+00  7.4014495635E+00  4.2076846131E-02  4.1047087317E-02  3.9313662617E-01
  6.0350000000E+03  2.1708793304E+00  7.3983276910E+00  4.2183249268E-02  4.1149044612E-02  3.9334685557E-01
  6.0400000000E+03  2.1731077285E+00  7.3952097191E+00  4.2289832709E-02  4.1251166446E-02  3.9355689976E-01
  6.0450000000E+03  2.1753365673E+00  7.3920956396E+00  4.2396596607E-02  4.1353452932E-02  3.9376675929E-01
  6.0500000000E+03  2.1775658464E+00  7.3889854445E+00  4.2503541118E-02  4.1455904179E-02  3.9397643468E-01
  6.0550000000E+03  2.1797955657E+00  7.3858791257E+00  4.2610666397E-02  4.1558520299E-02  3.9418592647E-01
  6.0600000000E+03  2.1820257248E+00  7.3828255097E+00  4.2717972599E-02  4.1661302957E-02  3.9439523517E-01
  6.0650000000E+03  2.1842563234E+00  7.3797901269E+00  4.2825459879E-02  4.1764251188E-02  3.9460436132E-01
  6.0700000000E+03  2.1864873614E+00  7.3767584918E+00  4.2933128393E-02  4.1867364643E-02  3.9481330544E-01
  6.0750000000E+03  2.1887188383E+00  7.3737305969E+00  4.3040978294E-02  4.1970643433E-02  3.9502206806E-01
  6.0800000000E+03  2.1909507540E+00  7.3707064343E+00  4.3149009738E-02  4.2074087669E-02  3.9523064969E-01
  6.0850000000E+03  2.1932273920E+00  7.3676859964E+00  4.3257222881E-02  4.2177713839E-02  3.9543905085E-01
  6.0900000000E+03  2.1955209122E+00  7.3646692756E+00  4.3365617877E-02  4.2281511867E-02  3.9564727207E-01
  6.0950000000E+03  2.1978149457E+00  7.3616562642E+00  4.3474194881E-02  4.2385475829E-02  3.9585531384E-01
  6.1000000000E+03  2.2001094920E+00  7.3586469547E+00  4.3582954048E-02  4.2489605835E-02  3.9606317670E-01
  6.1050000000E+03  2.2024045510E+00  7.3556413395E+00  4.3691895534E-02  4.2593901995E-02  3.9627086114E-01
  6.1100000000E+03  2.2047001222E+00  7.3526394110E+00  4.3801019493E-02  4.2698364420E-02  3.9647836769E-01
  6.1150000000E+03  2.2069962054E+00  7.3496411617E+00  4.3910326080E-02  4.2802993222E-02  3.9668569683E-01
  6.1200000000E+03  2.2092928002E+00  7.3466465840E+00  4.4019815451E-02  4.2907788509E-02  3.9689284909E-01
  6.1250000000E+03  2.2115899064E+00  7.3436556706E+00  4.4129487760E-02  4.3012750392E-02  3.9709982497E-01
  6.1300000000E+03  2.2138875237E+00  7.3406684138E+00  4.4239343163E-02  4.3117878982E-02  3.9730662496E-01
  6.1350000000E+03  2.2161856518E+00  7.3376848063E+00  4.4349381815E-02  4.3223174389E-02  3.9751324957E-01
  6.1400000000E+03  2.2184842839E+00  7.3347048407E+00  4.4459603870E-02  4.3328636720E-02  3.9771969929E-01
  6.1450000000E+03  2.2207834192E+00  7.3317285095E+00  4.4570009484E-02  4.3434266084E-02  3.9792597463E-01
  6.1500000000E+03  2.2230830643E+00  7.3287558054E+00  4.4680598812E-02  4.3540062596E-02  3.9813207608E-01
  6.1550000000E+03  2.2253832189E+00  7.3258032093E+00  4.4791372009E-02  4.3646026949E-02  3.9833800413E-01
  6.1600000000E+03  2.2276838828E+00  7.3228982177E+00  4.4902329230E-02  4.3752160244E-02  3.9854375927E-01
  6.1650000000E+03  2.2299850556E+00  7.3199967337E+00  4.5013470630E-02  4.3858461037E-02  3.9874934199E-01
  6.1700000000E+03  2.2322867370E+00  7.3170987502E+00  4.5124796364E-02  4.3964929435E-02  3.9895475279E-01
  6.1750000000E+03  2.2345889268E+00  7.3142042600E+00  4.5236306587E-02  4.4071565549E-02  3.9915999214E-01
  6.1800000000E+03  2.2368916246E+00  7.3113132563E+00  4.5348001454E-02  4.4178369488E-02  3.9936506054E-01
  6.1850000000E+03  2.2391948301E+00  7.3084257319E+00  4.5459881122E-02  4.4285341362E-02  3.9956995846E-01
  6.1900000000E+03  2.2414985431E+00  7.3055416799E+00  4.5571945743E-02  4.4392481280E-02  3.9977468638E-01
  6.1950000000E+03  2.2438027329E+00  7.3026610932E+00  4.5684195474E-02  4.4499789338E-02  3.9997924479E-01
  6.2000000000E+03  2.2461072030E+00  7.2997839651E+00  4.5796630470E-02  4.4607265569E-02  4.0018363417E-01
  6.2050000000E+03  2.2484121792E+00  7.2969102884E+00  4.5909250886E-02  4.4714910171E-02  4.0038785499E-01
  6.2100000000E+03  2.2507176615E+00  7.2940400562E+00  4.6022056877E-02  4.4822723252E-02  4.0059190772E-01
  6.2150000000E+03  2.2530236493E+00  7.2911732618E+00  4.6135048597E-02  4.4930704921E-02  4.0079579284E-01
  6.2200000000E+03  2.2553301425E+00  7.2883098982E+00  4.6248226203E-02  4.5038855287E-02  4.0099951082E-01
  6.2250000000E+03  2.2576371407E+00  7.2854499585E+00  4.6361589850E-02  4.5147174458E-02  4.0120306213E-01
  6.2300000000E+03  2.2599446436E+00  7.2825934360E+00  4.6475139691E-02  4.5255662544E-02  4.0140644724E-01
  6.2350000000E+03  2.2622526510E+00  7.2797403237E+00  4.6588875883E-02  4.5364319652E-02  4.0160966661E-01
  6.2400000000E+03  2.2645611626E+00  7.2768906149E+00  4.6702798581E-02  4.5473145891E-02  4.0181272071E-01
  6.2450000000E+03  2.2668701780E+00  7.2740443029E+00  4.6816907939E-02  4.5582141370E-02  4.0201561001E-01
  6.2500000000E+03  2.2691796970E+00  7.2712013808E+00  4.6931204114E-02  4.5691306195E-02  4.0221833496E-01
  6.2550000000E+03  2.2714903019E+00  7.2683884136E+00  4.7045687259E-02  4.5800641768E-02  4.0242089602E-01
  6.2600000000E+03  2.2738017190E+00  7.2656100372E+00  4.7160357531E-02  4.5910148291E-02  4.0262329366E-01
  6.2650000000E+03  2.2761136399E+00  7.2628349398E+00  4.7275215084E-02  4.6019824509E-02  4.0282552834E-01
  6.2700000000E+03  2.2784260643E+00  7.2600631150E+00  4.7390260073E-02  4.6129670531E-02  4.0302760050E-01
  6.2750000000E+03  2.2807389919E+00  7.2572945563E+00  4.7505492654E-02  4.6239686465E-02  4.0322951060E-01
  6.2800000000E+03  2.2830524224E+00  7.2545292572E+00  4.7620912982E-02  4.6349872419E-02  4.0343125909E-01
  6.2850000000E+03  2.2853663555E+00  7.2517672114E+00  4.7736521211E-02  4.6460228500E-02  4.0363284644E-01
  6.2900000000E+03  2.2876807910E+00  7.2490084123E+00  4.7852317498E-02  4.6570754816E-02  4.0383427307E-01
  6.2950000000E+03  2.2899957285E+00  7.2462528537E+00  4.7968301997E-02  4.6681451474E-02  4.0403553945E-01
  6.3000000000E+03  2.2923111677E+00  7.2435005291E+00  4.8084474863E-02  4.6792318583E-02  4.0423664602E-01
  6.3050000000E+03  2.2946271084E+00  7.2407514322E+00  4.8200836252E-02  4.6903356248E-02  4.0443759323E-01
  6.3100000000E+03  2.2969436166E+00  7.2380055566E+00  4.8317386318E-02  4.7014564606E-02  4.0463838152E-01
  6.3150000000E+03  2.2992613304E+00  7.2352628961E+00  4.8434125217E-02  4.7125944032E-02  4.0483901132E-01
  6.3200000000E+03  2.3015795457E+00  7.2325234443E+00  4.8551053105E-02  4.7237494339E-02  4.0503948309E-01
  6.3250000000E+03  2.3038982623E+00  7.2297871949E+00  4.8668170135E-02  4.7349215634E-02  4.0523979727E-01
  6.3300000000E+03  2.3062174799E+00  7.2270541416E+00  4.8785476464E-02  4.7461108023E-02  4.0543995428E-01
  6.3350000000E+03  2.3085371981E+00  7.2243242783E+00  4.8902972247E-02  4.7573171614E-02  4.0563995457E-01
  6.3400000000E+03  2.3108574168E+00  7.2215975986E+00  4.9020657638E-02  4.7685406514E-02  4.0583979857E-01
  6.3450000000E+03  2.3131781355E+00  7.2188740964E+00  4.9138532793E-02  4.7797812828E-02  4.0603948671E-01
  6.3500000000E+03  2.3154993540E+00  7.2161537654E+00  4.9256597867E-02  4.7910390664E-02  4.0623901944E-01
