#[MATERIAL DEFINITION FOR MC-GPU: interaction mean free path and sampling data from PENELOPE 2018]
#[MATERIAL NAME]
# heart                                                         
#[NOMINAL DENSITY (g/cm^3)]
#   1.05000000
#[NUMBER OF DATA VALUES]
#  23002
#[MEAN FREE PATHS (cm) (ie, average distance between interactions)]
#[Energy (eV)     | Rayleigh        | Compton         | Photoelectric   | TOTAL (+pair prod) (cm) | Rayleigh: max cumul prob F^2]
  5.0000000000E+03  1.7328351892E+00  8.1425788408E+00  2.3739801450E-02  2.3351799844E-02  3.4756971735E-01
  5.0050000000E+03  1.7348857746E+00  8.1374209021E+00  2.3811370768E-02  2.3421376888E-02  3.4783117577E-01
  5.0100000000E+03  1.7369367354E+00  8.1322713759E+00  2.3883083809E-02  2.3491089283E-02  3.4809233065E-01
  5.0150000000E+03  1.7389895275E+00  8.1271302404E+00  2.3954940718E-02  2.3560937415E-02  3.4835318264E-01
  5.0200000000E+03  1.7410435669E+00  8.1219974733E+00  2.4026941639E-02  2.3630921293E-02  3.4861373238E-01
  5.0250000000E+03  1.7430979839E+00  8.1168730528E+00  2.4099086715E-02  2.3701040875E-02  3.4887398051E-01
  5.0300000000E+03  1.7451527784E+00  8.1117569571E+00  2.4171376090E-02  2.3771296278E-02  3.4913392767E-01
  5.0350000000E+03  1.7472079500E+00  8.1066491643E+00  2.4243809909E-02  2.3841687617E-02  3.4939357448E-01
  5.0400000000E+03  1.7492634983E+00  8.1015496527E+00  2.4316388314E-02  2.3912215008E-02  3.4965292158E-01
  5.0450000000E+03  1.7513194231E+00  8.0964584008E+00  2.4389111451E-02  2.3982878568E-02  3.4991196961E-01
  5.0500000000E+03  1.7533757241E+00  8.0913753869E+00  2.4461979463E-02  2.4053678411E-02  3.5017071919E-01
  5.0550000000E+03  1.7554324010E+00  8.0863005897E+00  2.4534992494E-02  2.4124614654E-02  3.5042917095E-01
  5.0600000000E+03  1.7574896619E+00  8.0812339877E+00  2.4608150687E-02  2.4195687451E-02  3.5068732550E-01
  5.0650000000E+03  1.7595476854E+00  8.0761755596E+00  2.4681454188E-02  2.4266896954E-02  3.5094518349E-01
  5.0700000000E+03  1.7616060848E+00  8.0711252842E+00  2.4754903139E-02  2.4338243204E-02  3.5120274551E-01
  5.0750000000E+03  1.7636648596E+00  8.0660831402E+00  2.4828497684E-02  2.4409726316E-02  3.5146001220E-01
  5.0800000000E+03  1.7657240096E+00  8.0610491068E+00  2.4902237968E-02  2.4481346407E-02  3.5171698417E-01
  5.0850000000E+03  1.7677835345E+00  8.0561104900E+00  2.4976124134E-02  2.4553104403E-02  3.5197366203E-01
  5.0900000000E+03  1.7698434339E+00  8.0511882153E+00  2.5050156326E-02  2.4624999696E-02  3.5223004640E-01
  5.0950000000E+03  1.7719037076E+00  8.0462737765E+00  2.5124334689E-02  2.4697032324E-02  3.5248613789E-01
  5.1000000000E+03  1.7739643553E+00  8.0413671535E+00  2.5198659365E-02  2.4769202401E-02  3.5274193710E-01
  5.1050000000E+03  1.7760253766E+00  8.0364683263E+00  2.5273130499E-02  2.4841510044E-02  3.5299744464E-01
  5.1100000000E+03  1.7780872973E+00  8.0315772747E+00  2.5347748235E-02  2.4913955470E-02  3.5325266111E-01
  5.1150000000E+03  1.7801495970E+00  8.0266939790E+00  2.5422512717E-02  2.4986538693E-02  3.5350758713E-01
  5.1200000000E+03  1.7822122702E+00  8.0218184192E+00  2.5497424088E-02  2.5059259826E-02  3.5376222328E-01
  5.1250000000E+03  1.7842753166E+00  8.0169505755E+00  2.5572482493E-02  2.5132118985E-02  3.5401657018E-01
  5.1300000000E+03  1.7863387359E+00  8.0120904282E+00  2.5647688075E-02  2.5205116285E-02  3.5427062840E-01
  5.1350000000E+03  1.7884025278E+00  8.0072379577E+00  2.5723040978E-02  2.5278251839E-02  3.5452439856E-01
  5.1400000000E+03  1.7904666919E+00  8.0023931444E+00  2.5798541346E-02  2.5351525764E-02  3.5477788124E-01
  5.1450000000E+03  1.7925312281E+00  7.9975559687E+00  2.5874189323E-02  2.5424938172E-02  3.5503107703E-01
  5.1500000000E+03  1.7945961360E+00  7.9927264113E+00  2.5949985053E-02  2.5498489179E-02  3.5528398653E-01
  5.1550000000E+03  1.7966620366E+00  7.9879044527E+00  2.6025928679E-02  2.5572179025E-02  3.5553661032E-01
  5.1600000000E+03  1.7987288345E+00  7.9830900736E+00  2.6102020347E-02  2.5646007806E-02  3.5578894902E-01
  5.1650000000E+03  1.8007960047E+00  7.9783345343E+00  2.6178260198E-02  2.5719976063E-02  3.5604100349E-01
  5.1700000000E+03  1.8028635470E+00  7.9736276835E+00  2.6254648378E-02  2.5794083817E-02  3.5629277445E-01
  5.1750000000E+03  1.8049314611E+00  7.9689281553E+00  2.6331185030E-02  2.5868330754E-02  3.5654426260E-01
  5.1800000000E+03  1.8069997467E+00  7.9642359314E+00  2.6407870298E-02  2.5942716988E-02  3.5679546861E-01
  5.1850000000E+03  1.8090684034E+00  7.9595509933E+00  2.6484704326E-02  2.6017242633E-02  3.5704639318E-01
  5.1900000000E+03  1.8111374310E+00  7.9548733227E+00  2.6561687257E-02  2.6091907804E-02  3.5729703699E-01
  5.1950000000E+03  1.8132068292E+00  7.9502029014E+00  2.6638819237E-02  2.6166712615E-02  3.5754740072E-01
  5.2000000000E+03  1.8152766030E+00  7.9455397112E+00  2.6716100407E-02  2.6241657180E-02  3.5779748504E-01
  5.2050000000E+03  1.8173474035E+00  7.9408837339E+00  2.6793530913E-02  2.6316741749E-02  3.5804729064E-01
  5.2100000000E+03  1.8194185745E+00  7.9362349515E+00  2.6871110899E-02  2.6391966300E-02  3.5829681818E-01
  5.2150000000E+03  1.8214901159E+00  7.9315933459E+00  2.6948840507E-02  2.6467330947E-02  3.5854606834E-01
  5.2200000000E+03  1.8235620272E+00  7.9269588992E+00  2.7026719882E-02  2.6542835803E-02  3.5879504177E-01
  5.2250000000E+03  1.8256343084E+00  7.9223315936E+00  2.7104749168E-02  2.6618480981E-02  3.5904373916E-01
  5.2300000000E+03  1.8277069589E+00  7.9177114112E+00  2.7182928509E-02  2.6694266596E-02  3.5929216116E-01
  5.2350000000E+03  1.8297799786E+00  7.9130983342E+00  2.7261258048E-02  2.6770192759E-02  3.5954030843E-01
  5.2400000000E+03  1.8318533672E+00  7.9084923450E+00  2.7339737929E-02  2.6846259585E-02  3.5978818163E-01
  5.2450000000E+03  1.8339271244E+00  7.9038934259E+00  2.7418368296E-02  2.6922467187E-02  3.6003578141E-01
  5.2500000000E+03  1.8360021174E+00  7.8993849682E+00  2.7497149294E-02  2.6998816840E-02  3.6028310843E-01
  5.2550000000E+03  1.8380788603E+00  7.8948893630E+00  2.7576081065E-02  2.7075307877E-02  3.6053016334E-01
  5.2600000000E+03  1.8401559739E+00  7.8904005879E+00  2.7655163754E-02  2.7151940046E-02  3.6077694679E-01
  5.2650000000E+03  1.8422334579E+00  7.8859186263E+00  2.7734397504E-02  2.7228713458E-02  3.6102345942E-01
  5.2700000000E+03  1.8443113120E+00  7.8814434613E+00  2.7813782460E-02  2.7305628228E-02  3.6126970187E-01
  5.2750000000E+03  1.8463895359E+00  7.8769750762E+00  2.7893318765E-02  2.7382684467E-02  3.6151567480E-01
  5.2800000000E+03  1.8484681293E+00  7.8725134542E+00  2.7973006563E-02  2.7459882288E-02  3.6176137882E-01
  5.2850000000E+03  1.8505470919E+00  7.8680585788E+00  2.8052845997E-02  2.7537221805E-02  3.6200681459E-01
  5.2900000000E+03  1.8526264235E+00  7.8636104334E+00  2.8132837213E-02  2.7614703130E-02  3.6225198274E-01
  5.2950000000E+03  1.8547061238E+00  7.8591690015E+00  2.8212980352E-02  2.7692326375E-02  3.6249688389E-01
  5.3000000000E+03  1.8567861466E+00  7.8547342666E+00  2.8293275561E-02  2.7770091643E-02  3.6274151868E-01
  5.3050000000E+03  1.8588665151E+00  7.8503062123E+00  2.8373722981E-02  2.7847999051E-02  3.6298588774E-01
  5.3100000000E+03  1.8609472514E+00  7.8458848222E+00  2.8454322757E-02  2.7926048717E-02  3.6322999169E-01
  5.3150000000E+03  1.8630283551E+00  7.8414700802E+00  2.8535075033E-02  2.8004240753E-02  3.6347383115E-01
  5.3200000000E+03  1.8651098260E+00  7.8370619699E+00  2.8615979953E-02  2.8082575271E-02  3.6371740674E-01
  5.3250000000E+03  1.8671916638E+00  7.8326604751E+00  2.8697037660E-02  2.8161052382E-02  3.6396071908E-01
  5.3300000000E+03  1.8692738682E+00  7.8282694147E+00  2.8778248299E-02  2.8239672250E-02  3.6420376879E-01
  5.3350000000E+03  1.8713564390E+00  7.8239674763E+00  2.8859612012E-02  2.8318436018E-02  3.6444655649E-01
  5.3400000000E+03  1.8734393758E+00  7.8196719286E+00  2.8941128944E-02  2.8397342729E-02  3.6468908277E-01
  5.3450000000E+03  1.8755226784E+00  7.8153827561E+00  2.9022799240E-02  2.8476392495E-02  3.6493134826E-01
  5.3500000000E+03  1.8776060574E+00  7.8110999434E+00  2.9104623041E-02  2.8555585360E-02  3.6517335355E-01
  5.3550000000E+03  1.8796897587E+00  7.8068234751E+00  2.9186600493E-02  2.8634921494E-02  3.6541509926E-01
  5.3600000000E+03  1.8817738246E+00  7.8025533360E+00  2.9268731739E-02  2.8714401017E-02  3.6565658599E-01
  5.3650000000E+03  1.8838582546E+00  7.7982895107E+00  2.9351016923E-02  2.8794024041E-02  3.6589781434E-01
  5.3700000000E+03  1.8859430487E+00  7.7940319841E+00  2.9433456188E-02  2.8873790677E-02  3.6613878490E-01
  5.3750000000E+03  1.8880282065E+00  7.7897807410E+00  2.9516049680E-02  2.8953701038E-02  3.6637949827E-01
  5.3800000000E+03  1.8901137276E+00  7.7855357664E+00  2.9598797540E-02  2.9033755233E-02  3.6661995505E-01
  5.3850000000E+03  1.8921996120E+00  7.7812970451E+00  2.9681699914E-02  2.9113953376E-02  3.6686015583E-01
  5.3900000000E+03  1.8942858592E+00  7.7770645621E+00  2.9764756944E-02  2.9194295577E-02  3.6710010120E-01
  5.3950000000E+03  1.8963724690E+00  7.7728383025E+00  2.9847968776E-02  2.9274781946E-02  3.6733979175E-01
  5.4000000000E+03  1.8984601521E+00  7.7686182515E+00  2.9931335552E-02  2.9355412766E-02  3.6757922807E-01
  5.4050000000E+03  1.9005482142E+00  7.7644043940E+00  3.0014857416E-02  2.9436187982E-02  3.6781841073E-01
  5.4100000000E+03  1.9026366391E+00  7.7601967154E+00  3.0098534512E-02  2.9517107701E-02  3.6805734032E-01
  5.4150000000E+03  1.9047254263E+00  7.7559952008E+00  3.0182366984E-02  2.9598172035E-02  3.6829601742E-01
  5.4200000000E+03  1.9068145758E+00  7.7518736268E+00  3.0266354976E-02  2.9679382176E-02  3.6853444261E-01
  5.4250000000E+03  1.9089040871E+00  7.7477677216E+00  3.0350498631E-02  2.9760737307E-02  3.6877261646E-01
  5.4300000000E+03  1.9109939600E+00  7.7436677707E+00  3.0434798094E-02  2.9842237398E-02  3.6901053955E-01
  5.4350000000E+03  1.9130841943E+00  7.7395737600E+00  3.0519253508E-02  2.9923882560E-02  3.6924821245E-01
  5.4400000000E+03  1.9151747896E+00  7.7354856753E+00  3.0603865016E-02  3.0005672904E-02  3.6948563572E-01
  5.4450000000E+03  1.9172657458E+00  7.7314035027E+00  3.0688632763E-02  3.0087608539E-02  3.6972280995E-01
  5.4500000000E+03  1.9194345073E+00  7.7273272283E+00  3.0773556893E-02  3.0169708710E-02  3.6995973568E-01
  5.4550000000E+03  1.9216041977E+00  7.7232568380E+00  3.0858637548E-02  3.0251954659E-02  3.7019641350E-01
  5.4600000000E+03  1.9237743495E+00  7.7191923180E+00  3.0943874874E-02  3.0334346380E-02  3.7043284395E-01
  5.4650000000E+03  1.9259449623E+00  7.7151336545E+00  3.1029269013E-02  3.0416883985E-02  3.7066902760E-01
  5.4700000000E+03  1.9281160360E+00  7.7110808338E+00  3.1114820110E-02  3.0499567585E-02  3.7090496501E-01
  5.4750000000E+03  1.9302875700E+00  7.7070338419E+00  3.1200528308E-02  3.0582397290E-02  3.7114065673E-01
  5.4800000000E+03  1.9324595641E+00  7.7029926654E+00  3.1286393751E-02  3.0665373211E-02  3.7137610332E-01
  5.4850000000E+03  1.9346320181E+00  7.6989572904E+00  3.1372416583E-02  3.0748495458E-02  3.7161130533E-01
  5.4900000000E+03  1.9368049314E+00  7.6949277035E+00  3.1458596947E-02  3.0831764142E-02  3.7184626331E-01
  5.4950000000E+03  1.9389783039E+00  7.6909038910E+00  3.1544934988E-02  3.0915179373E-02  3.7208097781E-01
  5.5000000000E+03  1.9411557572E+00  7.6868858395E+00  3.1631430848E-02  3.0998742186E-02  3.7231544938E-01
  5.5050000000E+03  1.9433339975E+00  7.6829095893E+00  3.1718536212E-02  3.1082886068E-02  3.7254967856E-01
  5.5100000000E+03  1.9455127012E+00  7.6789835235E+00  3.1805801773E-02  3.1167179516E-02  3.7278366589E-01
  5.5150000000E+03  1.9476918680E+00  7.6750630222E+00  3.1893227680E-02  3.1251621916E-02  3.7301741192E-01
  5.5200000000E+03  1.9498714977E+00  7.6711480726E+00  3.1980814082E-02  3.1336213383E-02  3.7325091735E-01
  5.5250000000E+03  1.9520515898E+00  7.6672386618E+00  3.2068561125E-02  3.1420954031E-02  3.7348418285E-01
  5.5300000000E+03  1.9542321440E+00  7.6633347769E+00  3.2156468958E-02  3.1505843972E-02  3.7371720907E-01
  5.5350000000E+03  1.9564131601E+00  7.6594364052E+00  3.2244537729E-02  3.1590883321E-02  3.7394999663E-01
  5.5400000000E+03  1.9585946376E+00  7.6555435340E+00  3.2332767587E-02  3.1676072190E-02  3.7418254620E-01
  5.5450000000E+03  1.9607765764E+00  7.6516561504E+00  3.2421158679E-02  3.1761410693E-02  3.7441485839E-01
  5.5500000000E+03  1.9629589900E+00  7.6477742418E+00  3.2509711153E-02  3.1846898947E-02  3.7464693384E-01
  5.5550000000E+03  1.9651418689E+00  7.6438977957E+00  3.2598425158E-02  3.1932537063E-02  3.7487877318E-01
  5.5600000000E+03  1.9673252080E+00  7.6400267993E+00  3.2687300841E-02  3.2018325152E-02  3.7511037705E-01
  5.5650000000E+03  1.9695090071E+00  7.6361612402E+00  3.2776338350E-02  3.2104263328E-02  3.7534174606E-01
  5.5700000000E+03  1.9716932658E+00  7.6323011058E+00  3.2865537835E-02  3.2190351703E-02  3.7557288085E-01
  5.5750000000E+03  1.9738779839E+00  7.6284463836E+00  3.2954899442E-02  3.2276590390E-02  3.7580378202E-01
  5.5800000000E+03  1.9760631609E+00  7.6245970613E+00  3.3044423319E-02  3.2362979502E-02  3.7603445021E-01
  5.5850000000E+03  1.9782487966E+00  7.6207531264E+00  3.3134109616E-02  3.2449519151E-02  3.7626488602E-01
  5.5900000000E+03  1.9804348906E+00  7.6169145666E+00  3.3223958479E-02  3.2536209451E-02  3.7649509007E-01
  5.5950000000E+03  1.9826214427E+00  7.6131379039E+00  3.3313970058E-02  3.2623051551E-02  3.7672506298E-01
  5.6000000000E+03  1.9848084107E+00  7.6093873940E+00  3.3404144499E-02  3.2710044913E-02  3.7695480535E-01
  5.6050000000E+03  1.9869957913E+00  7.6056420765E+00  3.3494481952E-02  3.2797189266E-02  3.7718431778E-01
  5.6100000000E+03  1.9891836290E+00  7.6019019395E+00  3.3584982564E-02  3.2884484733E-02  3.7741360089E-01
  5.6150000000E+03  1.9913719233E+00  7.5981669713E+00  3.3675646483E-02  3.2971931428E-02  3.7764265528E-01
  5.6200000000E+03  1.9935606740E+00  7.5944371601E+00  3.3766473858E-02  3.3059529463E-02  3.7787148154E-01
  5.6250000000E+03  1.9957498808E+00  7.5907124942E+00  3.3857464836E-02  3.3147278950E-02  3.7810008028E-01
  5.6300000000E+03  1.9979395433E+00  7.5869929619E+00  3.3948619565E-02  3.3235180000E-02  3.7832845209E-01
  5.6350000000E+03  2.0001296612E+00  7.5832785517E+00  3.4039938194E-02  3.3323232727E-02  3.7855659756E-01
  5.6400000000E+03  2.0023202343E+00  7.5795692520E+00  3.4131420871E-02  3.3411437241E-02  3.7878451728E-01
  5.6450000000E+03  2.0045112622E+00  7.5758650511E+00  3.4223067744E-02  3.3499793655E-02  3.7901221185E-01
  5.6500000000E+03  2.0067028912E+00  7.5721659376E+00  3.4314878960E-02  3.3588302122E-02  3.7923968185E-01
  5.6550000000E+03  2.0088959914E+00  7.5684719000E+00  3.4406854668E-02  3.3676962997E-02  3.7946692786E-01
  5.6600000000E+03  2.0110895471E+00  7.5647829269E+00  3.4498995017E-02  3.3765776110E-02  3.7969395047E-01
  5.6650000000E+03  2.0132835579E+00  7.5610990068E+00  3.4591300153E-02  3.3854741572E-02  3.7992075026E-01
  5.6700000000E+03  2.0154780234E+00  7.5574201284E+00  3.4683770226E-02  3.3943859494E-02  3.8014732780E-01
  5.6750000000E+03  2.0176729435E+00  7.5537462803E+00  3.4776405383E-02  3.4033129987E-02  3.8037368368E-01
  5.6800000000E+03  2.0198683177E+00  7.5500774513E+00  3.4869205772E-02  3.4122553163E-02  3.8059981846E-01
  5.6850000000E+03  2.0220641458E+00  7.5464677151E+00  3.4962171542E-02  3.4212130245E-02  3.8082573271E-01
  5.6900000000E+03  2.0242604275E+00  7.5428831472E+00  3.5055302840E-02  3.4301860663E-02  3.8105142702E-01
  5.6950000000E+03  2.0264571624E+00  7.5393034282E+00  3.5148599815E-02  3.4391744113E-02  3.8127690194E-01
  5.7000000000E+03  2.0286543504E+00  7.5357285473E+00  3.5242062615E-02  3.4481780707E-02  3.8150215803E-01
  5.7050000000E+03  2.0308517574E+00  7.5321584938E+00  3.5335691388E-02  3.4571970489E-02  3.8172719587E-01
  5.7100000000E+03  2.0330495026E+00  7.5285932569E+00  3.5429486281E-02  3.4662313602E-02  3.8195201602E-01
  5.7150000000E+03  2.0352476993E+00  7.5250328259E+00  3.5523447443E-02  3.4752810190E-02  3.8217661903E-01
  5.7200000000E+03  2.0374463473E+00  7.5214771901E+00  3.5617575023E-02  3.4843460365E-02  3.8240100546E-01
  5.7250000000E+03  2.0396454463E+00  7.5179263388E+00  3.5711869167E-02  3.4934264238E-02  3.8262517586E-01
  5.7300000000E+03  2.0418449960E+00  7.5143802616E+00  3.5806330025E-02  3.5025221918E-02  3.8284913080E-01
  5.7350000000E+03  2.0440449961E+00  7.5108389477E+00  3.5900957744E-02  3.5116333516E-02  3.8307287081E-01
  5.7400000000E+03  2.0462454463E+00  7.5073023867E+00  3.5995752473E-02  3.5207599143E-02  3.8329639645E-01
  5.7450000000E+03  2.0484463463E+00  7.5037705681E+00  3.6090714359E-02  3.5299018909E-02  3.8351970828E-01
  5.7500000000E+03  2.0506476958E+00  7.5002434813E+00  3.6185843551E-02  3.5390592924E-02  3.8374280682E-01
  5.7550000000E+03  2.0528496159E+00  7.4967211159E+00  3.6281140196E-02  3.5482321335E-02  3.8396569263E-01
  5.7600000000E+03  2.0550528761E+00  7.4932034615E+00  3.6376604444E-02  3.5574204483E-02  3.8418836624E-01
  5.7650000000E+03  2.0572565863E+00  7.4896905078E+00  3.6472236441E-02  3.5666242213E-02  3.8441082820E-01
  5.7700000000E+03  2.0594607460E+00  7.4861822443E+00  3.6568036336E-02  3.5758434635E-02  3.8463307904E-01
  5.7750000000E+03  2.0616653550E+00  7.4827097117E+00  3.6664004278E-02  3.5850782571E-02  3.8485511930E-01
  5.7800000000E+03  2.0638704130E+00  7.4792821288E+00  3.6760140413E-02  3.5943286358E-02  3.8507694952E-01
  5.7850000000E+03  2.0660759197E+00  7.4758590776E+00  3.6856444891E-02  3.6035945183E-02  3.8529857022E-01
  5.7900000000E+03  2.0682818748E+00  7.4724405483E+00  3.6952917860E-02  3.6128759157E-02  3.8551998193E-01
  5.7950000000E+03  2.0704882780E+00  7.4690265310E+00  3.7049559466E-02  3.6221728388E-02  3.8574118518E-01
  5.8000000000E+03  2.0726951290E+00  7.4656170158E+00  3.7146369860E-02  3.6314852987E-02  3.8596218051E-01
  5.8050000000E+03  2.0749024276E+00  7.4622119931E+00  3.7243349188E-02  3.6408133063E-02  3.8618296842E-01
  5.8100000000E+03  2.0771107247E+00  7.4588114529E+00  3.7340497599E-02  3.6501568896E-02  3.8640354945E-01
  5.8150000000E+03  2.0793200868E+00  7.4554153855E+00  3.7437815241E-02  3.6595160617E-02  3.8662392411E-01
  5.8200000000E+03  2.0815298969E+00  7.4520237813E+00  3.7535302262E-02  3.6688908145E-02  3.8684409293E-01
  5.8250000000E+03  2.0837401549E+00  7.4486366304E+00  3.7632958810E-02  3.6782811591E-02  3.8706405642E-01
  5.8300000000E+03  2.0859508603E+00  7.4452539233E+00  3.7730785033E-02  3.6876871062E-02  3.8728381510E-01
  5.8350000000E+03  2.0881620130E+00  7.4418756504E+00  3.7828781080E-02  3.6971086668E-02  3.8750336947E-01
  5.8400000000E+03  2.0903736127E+00  7.4385018019E+00  3.7926947098E-02  3.7065458519E-02  3.8772272006E-01
  5.8450000000E+03  2.0925856590E+00  7.4351323684E+00  3.8025283236E-02  3.7159986722E-02  3.8794186736E-01
  5.8500000000E+03  2.0947981516E+00  7.4317673403E+00  3.8123789641E-02  3.7254671386E-02  3.8816081189E-01
  5.8550000000E+03  2.0970110903E+00  7.4284067080E+00  3.8222466462E-02  3.7349512621E-02  3.8837955415E-01
  5.8600000000E+03  2.0992244748E+00  7.4250504622E+00  3.8321313847E-02  3.7444510535E-02  3.8859809470E-01
  5.8650000000E+03  2.1014387279E+00  7.4216985932E+00  3.8420331944E-02  3.7539665372E-02  3.8881643411E-01
  5.8700000000E+03  2.1036535882E+00  7.4184091999E+00  3.8519520901E-02  3.7634978653E-02  3.8903457295E-01
  5.8750000000E+03  2.1058688941E+00  7.4151344843E+00  3.8618880866E-02  3.7730449224E-02  3.8925251178E-01
  5.8800000000E+03  2.1080846453E+00  7.4118639983E+00  3.8718411988E-02  3.7826076927E-02  3.8947025118E-01
  5.8850000000E+03  2.1103008416E+00  7.4085977327E+00  3.8818114414E-02  3.7921861871E-02  3.8968779170E-01
  5.8900000000E+03  2.1125174827E+00  7.4053356786E+00  3.8917988292E-02  3.8017804164E-02  3.8990513391E-01
  5.8950000000E+03  2.1147345682E+00  7.4020778269E+00  3.9018033771E-02  3.8113903913E-02  3.9012227835E-01
  5.9000000000E+03  2.1169520979E+00  7.3988241687E+00  3.9118250999E-02  3.8210161227E-02  3.9033922560E-01
  5.9050000000E+03  2.1191700715E+00  7.3955746951E+00  3.9218640124E-02  3.8306576214E-02  3.9055597619E-01
  5.9100000000E+03  2.1213884888E+00  7.3923293970E+00  3.9319201293E-02  3.8403148982E-02  3.9077253069E-01
  5.9150000000E+03  2.1236073493E+00  7.3890882657E+00  3.9419934656E-02  3.8499879638E-02  3.9098888964E-01
  5.9200000000E+03  2.1258281684E+00  7.3858512922E+00  3.9520840360E-02  3.8596768790E-02  3.9120505360E-01
  5.9250000000E+03  2.1280496468E+00  7.3826184678E+00  3.9621918553E-02  3.8693816121E-02  3.9142102310E-01
  5.9300000000E+03  2.1302715698E+00  7.3793897835E+00  3.9723169384E-02  3.8791021668E-02  3.9163679869E-01
  5.9350000000E+03  2.1324939372E+00  7.3761652307E+00  3.9824593000E-02  3.8888385538E-02  3.9185238091E-01
  5.9400000000E+03  2.1347167486E+00  7.3729448005E+00  3.9926189550E-02  3.8985907838E-02  3.9206777031E-01
  5.9450000000E+03  2.1369400037E+00  7.3697284843E+00  4.0027959182E-02  3.9083588676E-02  3.9228296741E-01
  5.9500000000E+03  2.1391637024E+00  7.3665162733E+00  4.0129902044E-02  3.9181428160E-02  3.9249797276E-01
  5.9550000000E+03  2.1413878442E+00  7.3633081588E+00  4.0232018283E-02  3.9279426396E-02  3.9271278689E-01
  5.9600000000E+03  2.1436124290E+00  7.3601041321E+00  4.0334308049E-02  3.9377583491E-02  3.9292741034E-01
  5.9650000000E+03  2.1458374563E+00  7.3569674370E+00  4.0436771489E-02  3.9475901374E-02  3.9314184362E-01
  5.9700000000E+03  2.1480629260E+00  7.3538372243E+00  4.0539408751E-02  3.9574378422E-02  3.9335608728E-01
  5.9750000000E+03  2.1502882282E+00  7.3507109623E+00  4.0642219984E-02  3.9673014461E-02  3.9357014183E-01
  5.9800000000E+03  2.1525139255E+00  7.3475886426E+00  4.0745205336E-02  3.9771809790E-02  3.9378400780E-01
  5.9850000000E+03  2.1547400635E+00  7.3444702571E+00  4.0848364954E-02  3.9870764530E-02  3.9399768571E-01
  5.9900000000E+03  2.1569666419E+00  7.3413557975E+00  4.0951698987E-02  3.9969878788E-02  3.9421117609E-01
  5.9950000000E+03  2.1591936604E+00  7.3382452555E+00  4.1055207583E-02  4.0069152671E-02  3.9442447944E-01
  6.0000000000E+03  2.1614211188E+00  7.3351386231E+00  4.1158890891E-02  4.0168586285E-02  3.9463759630E-01
  6.0050000000E+03  2.1636490167E+00  7.3320358919E+00  4.1263481686E-02  4.0268877473E-02  3.9485052717E-01
  6.0100000000E+03  2.1658773540E+00  7.3289370540E+00  4.1368250612E-02  4.0369331457E-02  3.9506327257E-01
  6.0150000000E+03  2.1681061302E+00  7.3258421011E+00  4.1473197824E-02  4.0469948348E-02  3.9527583300E-01
  6.0200000000E+03  2.1703353452E+00  7.3227510252E+00  4.1578323475E-02  4.0570728257E-02  3.9548820898E-01
  6.0250000000E+03  2.1725649986E+00  7.3196638182E+00  4.1683627719E-02  4.0671671293E-02  3.9570040102E-01
  6.0300000000E+03  2.1748032851E+00  7.3165804721E+00  4.1789110711E-02  4.0772780449E-02  3.9591240962E-01
  6.0350000000E+03  2.1770431377E+00  7.3135009787E+00  4.1894772604E-02  4.0874053369E-02  3.9612423528E-01
  6.0400000000E+03  2.1792834393E+00  7.3104253303E+00  4.2000613553E-02  4.0975489772E-02  3.9633587851E-01
  6.0450000000E+03  2.1815241896E+00  7.3073535186E+00  4.2106633712E-02  4.1077089769E-02  3.9654733981E-01
  6.0500000000E+03  2.1837653885E+00  7.3042855359E+00  4.2212833234E-02  4.1178853470E-02  3.9675861967E-01
  6.0550000000E+03  2.1860070355E+00  7.3012213742E+00  4.2319212274E-02  4.1280780986E-02  3.9696971860E-01
  6.0600000000E+03  2.1882491304E+00  7.2982096321E+00  4.2425770986E-02  4.1382873990E-02  3.9718063709E-01
  6.0650000000E+03  2.1904916730E+00  7.2952160011E+00  4.2532509525E-02  4.1485131509E-02  3.9739137563E-01
  6.0700000000E+03  2.1927346629E+00  7.2922260636E+00  4.2639428043E-02  4.1587553194E-02  3.9760193471E-01
  6.0750000000E+03  2.1949780998E+00  7.2892398118E+00  4.2746526696E-02  4.1690139154E-02  3.9781231483E-01
  6.0800000000E+03  2.1972219836E+00  7.2862572382E+00  4.2853805638E-02  4.1792889499E-02  3.9802251647E-01
  6.0850000000E+03  2.1995101013E+00  7.2832783353E+00  4.2961265021E-02  4.1895820227E-02  3.9823254013E-01
  6.0900000000E+03  2.2018149252E+00  7.2803030955E+00  4.3068905002E-02  4.1998921567E-02  3.9844238627E-01
  6.0950000000E+03  2.2041202697E+00  7.2773315114E+00  4.3176725733E-02  4.2102187775E-02  3.9865205540E-01
  6.1000000000E+03  2.2064261347E+00  7.2743635754E+00  4.3284727370E-02  4.2205618959E-02  3.9886154798E-01
  6.1050000000E+03  2.2087325197E+00  7.2713992800E+00  4.3392910065E-02  4.2309215231E-02  3.9907086450E-01
  6.1100000000E+03  2.2110394245E+00  7.2684386179E+00  4.3501273974E-02  4.2412976700E-02  3.9928000545E-01
  6.1150000000E+03  2.2133468487E+00  7.2654815816E+00  4.3609819250E-02  4.2516903477E-02  3.9948897128E-01
  6.1200000000E+03  2.2156547921E+00  7.2625281637E+00  4.3718546047E-02  4.2620995672E-02  3.9969776249E-01
  6.1250000000E+03  2.2179632542E+00  7.2595783568E+00  4.3827454520E-02  4.2725253393E-02  3.9990637955E-01
  6.1300000000E+03  2.2202722349E+00  7.2566321536E+00  4.3936544823E-02  4.2829676752E-02  4.0011482291E-01
  6.1350000000E+03  2.2225817339E+00  7.2536895468E+00  4.4045817110E-02  4.2934265858E-02  4.0032309307E-01
  6.1400000000E+03  2.2248916346E+00  7.2507505289E+00  4.4155271535E-02  4.3039020776E-02  4.0053119048E-01
  6.1450000000E+03  2.2272019249E+00  7.2478150928E+00  4.4264908253E-02  4.3143941612E-02  4.0073911561E-01
  6.1500000000E+03  2.2295127322E+00  7.2448832312E+00  4.4374727417E-02  4.3249028523E-02  4.0094686893E-01
  6.1550000000E+03  2.2318240562E+00  7.2419713474E+00  4.4484729181E-02  4.3354282206E-02  4.0115445090E-01
  6.1600000000E+03  2.2341358965E+00  7.2391068085E+00  4.4594913700E-02  4.3459703767E-02  4.0136186199E-01
  6.1650000000E+03  2.2364482530E+00  7.2362457254E+00  4.4705281128E-02  4.3565291751E-02  4.0156910265E-01
  6.1700000000E+03  2.2387611252E+00  7.2333880912E+00  4.4815831620E-02  4.3671046268E-02  4.0177617348E-01
  6.1750000000E+03  2.2410745129E+00  7.2305338989E+00  4.4926565328E-02  4.3776967426E-02  4.0198307505E-01
  6.1800000000E+03  2.2433884157E+00  7.2276831416E+00  4.5037482408E-02  4.3883055336E-02  4.0218980786E-01
  6.1850000000E+03  2.2457028335E+00  7.2248358124E+00  4.5148583014E-02  4.3989310105E-02  4.0239637239E-01
  6.1900000000E+03  2.2480177657E+00  7.2219919045E+00  4.5259867300E-02  4.4095731842E-02  4.0260276915E-01
  6.1950000000E+03  2.2503332575E+00  7.2191514109E+00  4.5371335420E-02  4.4202320675E-02  4.0280899863E-01
  6.2000000000E+03  2.2526496016E+00  7.2163143248E+00  4.5482987528E-02  4.4309076824E-02  4.0301506132E-01
  6.2050000000E+03  2.2549664599E+00  7.2134806393E+00  4.5594823778E-02  4.4416000269E-02  4.0322095771E-01
  6.2100000000E+03  2.2572838320E+00  7.2106503477E+00  4.5706844326E-02  4.4523091117E-02  4.0342668830E-01
  6.2150000000E+03  2.2596017176E+00  7.2078234431E+00  4.5819049324E-02  4.4630349479E-02  4.0363225356E-01
  6.2200000000E+03  2.2619201165E+00  7.2049999189E+00  4.5931438927E-02  4.4737775461E-02  4.0383765398E-01
  6.2250000000E+03  2.2642390283E+00  7.2021797681E+00  4.6044013290E-02  4.4845369172E-02  4.0404289005E-01
  6.2300000000E+03  2.2665584528E+00  7.1993629842E+00  4.6156772566E-02  4.4953130720E-02  4.0424796225E-01
  6.2350000000E+03  2.2688783896E+00  7.1965495603E+00  4.6269716910E-02  4.5061060213E-02  4.0445287105E-01
  6.2400000000E+03  2.2711988384E+00  7.1937394899E+00  4.6382846476E-02  4.5169157759E-02  4.0465761694E-01
  6.2450000000E+03  2.2735197990E+00  7.1909327661E+00  4.6496161419E-02  4.5277423466E-02  4.0486220038E-01
  6.2500000000E+03  2.2758412711E+00  7.1881293823E+00  4.6609661891E-02  4.5385857442E-02  4.0506662187E-01
  6.2550000000E+03  2.2781633087E+00  7.1853557777E+00  4.6723348049E-02  4.5494460877E-02  4.0527088187E-01
  6.2600000000E+03  2.2804858861E+00  7.1826165660E+00  4.6837220045E-02  4.5603234071E-02  4.0547498085E-01
  6.2650000000E+03  2.2828089741E+00  7.1798805843E+00  4.6951278035E-02  4.5712175879E-02  4.0567891928E-01
  6.2700000000E+03  2.2851325725E+00  7.1771478263E+00  4.7065522172E-02  4.5821286409E-02  4.0588269763E-01
  6.2750000000E+03  2.2874566809E+00  7.1744182854E+00  4.7179952611E-02  4.5930565767E-02  4.0608631637E-01
  6.2800000000E+03  2.2897812992E+00  7.1716919555E+00  4.7294569506E-02  4.6040014062E-02  4.0628977596E-01
  6.2850000000E+03  2.2921064269E+00  7.1689688301E+00  4.7409373011E-02  4.6149631401E-02  4.0649307687E-01
  6.2900000000E+03  2.2944320638E+00  7.1662489030E+00  4.7524363280E-02  4.6259417890E-02  4.0669621956E-01
  6.2950000000E+03  2.2967582096E+00  7.1635321679E+00  4.7639540468E-02  4.6369373638E-02  4.0689920449E-01
  6.3000000000E+03  2.2990848641E+00  7.1608186184E+00  4.7754904729E-02  4.6479498750E-02  4.0710203212E-01
  6.3050000000E+03  2.3014120268E+00  7.1581082484E+00  4.7870456218E-02  4.6589793335E-02  4.0730470290E-01
  6.3100000000E+03  2.3037396409E+00  7.1554010516E+00  4.7986195088E-02  4.6700257474E-02  4.0750721730E-01
  6.3150000000E+03  2.3060671591E+00  7.1526970217E+00  4.8102121494E-02  4.6810891051E-02  4.0770957577E-01
  6.3200000000E+03  2.3083951839E+00  7.1499961526E+00  4.8218235590E-02  4.6921694418E-02  4.0791177875E-01
  6.3250000000E+03  2.3107237150E+00  7.1472984380E+00  4.8334537530E-02  4.7032667681E-02  4.0811382671E-01
  6.3300000000E+03  2.3130527523E+00  7.1446038718E+00  4.8451027469E-02  4.7143810948E-02  4.0831572009E-01
  6.3350000000E+03  2.3153822952E+00  7.1419124479E+00  4.8567705561E-02  4.7255124325E-02  4.0851745934E-01
  6.3400000000E+03  2.3177123437E+00  7.1392241600E+00  4.8684571960E-02  4.7366607918E-02  4.0871904491E-01
  6.3450000000E+03  2.3200428973E+00  7.1365390021E+00  4.8801626821E-02  4.7478261833E-02  4.0892047724E-01
  6.3500000000E+03  2.3223739558E+00  7.1338569681E+00  4.8918870297E-02  4.7590086177E-02  4.0912175678E-01
