#[MATERIAL DEFINITION FOR MC-GPU: interaction mean free path and sampling data from PENELOPE 2018]
#[MATERIAL NAME]
# bone                                                          
#[NOMINAL DENSITY (g/cm^3)]
#   1.92000000
#[NUMBER OF DATA VALUES]
#  23002
#[MEAN FREE PATHS (cm) (ie, average distance between interactions)]
#[Energy (eV)     | Rayleigh        | Compton         | Photoelectric   | TOTAL (+pair prod) (cm) | Rayleigh: max cumul prob F^2]
  5.0000000000E+03  6.0453671406E-01  5.3453021728E+00  2.8858379110E-03  2.8705850045E-03  2.5674035651E-01
  5.0050000000E+03  6.0497282525E-01  5.3420159521E+00  2.8935912879E-03  2.8782654543E-03  2.5698945560E-01
  5.0100000000E+03  6.0540881511E-01  5.3387350301E+00  2.9013576487E-03  2.8859586114E-03  2.5723841275E-01
  5.0150000000E+03  6.0584431007E-01  5.3354593928E+00  2.9091370020E-03  2.8936644751E-03  2.5748722820E-01
  5.0200000000E+03  6.0627946050E-01  5.3321890265E+00  2.9169293565E-03  2.9013830564E-03  2.5773590217E-01
  5.0250000000E+03  6.0671448982E-01  5.3289239175E+00  2.9247347205E-03  2.9091143682E-03  2.5798443488E-01
  5.0300000000E+03  6.0714939818E-01  5.3256640521E+00  2.9325531029E-03  2.9168584183E-03  2.5823282656E-01
  5.0350000000E+03  6.0758418572E-01  5.3224094168E+00  2.9403845120E-03  2.9246152145E-03  2.5848107742E-01
  5.0400000000E+03  6.0801885260E-01  5.3191599978E+00  2.9482289564E-03  2.9323847645E-03  2.5872918770E-01
  5.0450000000E+03  6.0845339898E-01  5.3159157818E+00  2.9560864447E-03  2.9401670760E-03  2.5897715762E-01
  5.0500000000E+03  6.0888782501E-01  5.3126767552E+00  2.9639569855E-03  2.9479621570E-03  2.5922498739E-01
  5.0550000000E+03  6.0932213084E-01  5.3094429046E+00  2.9718405872E-03  2.9557700150E-03  2.5947267725E-01
  5.0600000000E+03  6.0976792859E-01  5.3062142167E+00  2.9797372585E-03  2.9635909322E-03  2.5972022742E-01
  5.0650000000E+03  6.1023518250E-01  5.3029906780E+00  2.9876470079E-03  2.9714251557E-03  2.5996763811E-01
  5.0700000000E+03  6.1070233290E-01  5.2997722753E+00  2.9955698439E-03  2.9792721859E-03  2.6021490956E-01
  5.0750000000E+03  6.1116937991E-01  5.2965589955E+00  3.0035057750E-03  2.9871320305E-03  2.6046204198E-01
  5.0800000000E+03  6.1163632365E-01  5.2933508252E+00  3.0114548098E-03  2.9950046974E-03  2.6070903560E-01
  5.0850000000E+03  6.1210316427E-01  5.2901880191E+00  3.0194169567E-03  3.0028902073E-03  2.6095589063E-01
  5.0900000000E+03  6.1256990186E-01  5.2870341129E+00  3.0273922245E-03  3.0107885564E-03  2.6120260731E-01
  5.0950000000E+03  6.1303653657E-01  5.2838851809E+00  3.0353806214E-03  3.0186997510E-03  2.6144918585E-01
  5.1000000000E+03  6.1350306851E-01  5.2807412102E+00  3.0433821562E-03  3.0266237991E-03  2.6169562648E-01
  5.1050000000E+03  6.1396949781E-01  5.2776021884E+00  3.0513968372E-03  3.0345607083E-03  2.6194192941E-01
  5.1100000000E+03  6.1444320645E-01  5.2744681026E+00  3.0594246730E-03  3.0425106674E-03  2.6218809488E-01
  5.1150000000E+03  6.1491689134E-01  5.2713389405E+00  3.0674656721E-03  3.0504735063E-03  2.6243412309E-01
  5.1200000000E+03  6.1539047806E-01  5.2682146893E+00  3.0755198431E-03  3.0584492310E-03  2.6268001428E-01
  5.1250000000E+03  6.1586396672E-01  5.2650953367E+00  3.0835871943E-03  3.0664378492E-03  2.6292576866E-01
  5.1300000000E+03  6.1633735745E-01  5.2619808702E+00  3.0916677344E-03  3.0744393686E-03  2.6317138646E-01
  5.1350000000E+03  6.1681065035E-01  5.2588712773E+00  3.0997614718E-03  3.0824537970E-03  2.6341686789E-01
  5.1400000000E+03  6.1728384554E-01  5.2557665457E+00  3.1078684150E-03  3.0904811421E-03  2.6366221320E-01
  5.1450000000E+03  6.1775694314E-01  5.2526666632E+00  3.1159885724E-03  3.0985214115E-03  2.6390742263E-01
  5.1500000000E+03  6.1822994325E-01  5.2495716174E+00  3.1241219527E-03  3.1065746130E-03  2.6415249645E-01
  5.1550000000E+03  6.1870494049E-01  5.2464813960E+00  3.1322685643E-03  3.1146408073E-03  2.6439743490E-01
  5.1600000000E+03  6.1918161205E-01  5.2433959870E+00  3.1404284156E-03  3.1227199945E-03  2.6464223822E-01
  5.1650000000E+03  6.1965818864E-01  5.2403391695E+00  3.1486015151E-03  3.1308121462E-03  2.6488690665E-01
  5.1700000000E+03  6.2013467039E-01  5.2373062315E+00  3.1567878713E-03  3.1389172685E-03  2.6513144043E-01
  5.1750000000E+03  6.2061105740E-01  5.2342779781E+00  3.1649874928E-03  3.1470353622E-03  2.6537583982E-01
  5.1800000000E+03  6.2108734979E-01  5.2312543976E+00  3.1732003878E-03  3.1551664351E-03  2.6562010504E-01
  5.1850000000E+03  6.2156354766E-01  5.2282354782E+00  3.1814265650E-03  3.1633104948E-03  2.6586423634E-01
  5.1900000000E+03  6.2203965113E-01  5.2252212083E+00  3.1896660328E-03  3.1714675491E-03  2.6610823397E-01
  5.1950000000E+03  6.2251566030E-01  5.2222115763E+00  3.1979187996E-03  3.1796376055E-03  2.6635209816E-01
  5.2000000000E+03  6.2299157106E-01  5.2192065705E+00  3.2061848739E-03  3.1878206716E-03  2.6659582916E-01
  5.2050000000E+03  6.2346686340E-01  5.2162061794E+00  3.2144642642E-03  3.1960167415E-03  2.6683942720E-01
  5.2100000000E+03  6.2394206147E-01  5.2132103916E+00  3.2227569789E-03  3.2042258364E-03  2.6708289253E-01
  5.2150000000E+03  6.2441716539E-01  5.2102191954E+00  3.2310630264E-03  3.2124479640E-03  2.6732622538E-01
  5.2200000000E+03  6.2489217525E-01  5.2072325796E+00  3.2393824153E-03  3.2206831319E-03  2.6756942600E-01
  5.2250000000E+03  6.2536709118E-01  5.2042505327E+00  3.2477151538E-03  3.2289313479E-03  2.6781249462E-01
  5.2300000000E+03  6.2584191328E-01  5.2012730433E+00  3.2560612506E-03  3.2371926194E-03  2.6805543150E-01
  5.2350000000E+03  6.2631664165E-01  5.1983001002E+00  3.2644207140E-03  3.2454669542E-03  2.6829823685E-01
  5.2400000000E+03  6.2679127641E-01  5.1953316921E+00  3.2727935524E-03  3.2537543600E-03  2.6854091093E-01
  5.2450000000E+03  6.2726581766E-01  5.1923678077E+00  3.2811949919E-03  3.2620698849E-03  2.6878345397E-01
  5.2500000000E+03  6.2774015595E-01  5.1894473732E+00  3.2896740694E-03  3.2704620056E-03  2.6902586621E-01
  5.2550000000E+03  6.2821422656E-01  5.1865341566E+00  3.2981668925E-03  3.2788675542E-03  2.6926814789E-01
  5.2600000000E+03  6.2868820383E-01  5.1836253436E+00  3.3066734703E-03  3.2872865426E-03  2.6951029925E-01
  5.2650000000E+03  6.2916208787E-01  5.1807209233E+00  3.3151938119E-03  3.2957189789E-03  2.6975232052E-01
  5.2700000000E+03  6.2963587877E-01  5.1778208851E+00  3.3237279261E-03  3.3041648713E-03  2.6999421194E-01
  5.2750000000E+03  6.3010957665E-01  5.1749252180E+00  3.3322758221E-03  3.3126242280E-03  2.7023597375E-01
  5.2800000000E+03  6.3058318162E-01  5.1720339115E+00  3.3408375088E-03  3.3210970571E-03  2.7047760619E-01
  5.2850000000E+03  6.3105669377E-01  5.1691469547E+00  3.3494129953E-03  3.3295833667E-03  2.7071910948E-01
  5.2900000000E+03  6.3153011322E-01  5.1662643371E+00  3.3580022905E-03  3.3380831651E-03  2.7096048388E-01
  5.2950000000E+03  6.3200344008E-01  5.1633860481E+00  3.3666054036E-03  3.3465964603E-03  2.7120172961E-01
  5.3000000000E+03  6.3249268945E-01  5.1605120770E+00  3.3752223434E-03  3.3551237112E-03  2.7144284691E-01
  5.3050000000E+03  6.3298960430E-01  5.1576424133E+00  3.3838531190E-03  3.3636646976E-03  2.7168383601E-01
  5.3100000000E+03  6.3348644088E-01  5.1547770466E+00  3.3924977393E-03  3.3722192104E-03  2.7192469716E-01
  5.3150000000E+03  6.3398319926E-01  5.1519159663E+00  3.4011562135E-03  3.3807872578E-03  2.7216543058E-01
  5.3200000000E+03  6.3447987954E-01  5.1490591620E+00  3.4098285504E-03  3.3893688480E-03  2.7240603652E-01
  5.3250000000E+03  6.3497648180E-01  5.1462066233E+00  3.4185147590E-03  3.3979639891E-03  2.7264651520E-01
  5.3300000000E+03  6.3547300612E-01  5.1433601412E+00  3.4272148484E-03  3.4065726901E-03  2.7288686686E-01
  5.3350000000E+03  6.3596945260E-01  5.1405566739E+00  3.4359288275E-03  3.4151949754E-03  2.7312709173E-01
  5.3400000000E+03  6.3646582131E-01  5.1377573588E+00  3.4446567053E-03  3.4238308362E-03  2.7336719005E-01
  5.3450000000E+03  6.3696211234E-01  5.1349621857E+00  3.4533984908E-03  3.4324802806E-03  2.7360716205E-01
  5.3500000000E+03  6.3746475594E-01  5.1321711447E+00  3.4621541929E-03  3.4411435042E-03  2.7384700797E-01
  5.3550000000E+03  6.3796827027E-01  5.1293842259E+00  3.4709238207E-03  3.4498203567E-03  2.7408672804E-01
  5.3600000000E+03  6.3847171185E-01  5.1266014193E+00  3.4797073830E-03  3.4585108188E-03  2.7432632248E-01
  5.3650000000E+03  6.3897508074E-01  5.1238227150E+00  3.4885048889E-03  3.4672148987E-03  2.7456579154E-01
  5.3700000000E+03  6.3947837703E-01  5.1210481031E+00  3.4973163473E-03  3.4759326044E-03  2.7480513545E-01
  5.3750000000E+03  6.3998160080E-01  5.1182775739E+00  3.5061417672E-03  3.4846639442E-03  2.7504435443E-01
  5.3800000000E+03  6.4048475211E-01  5.1155111175E+00  3.5149811575E-03  3.4934089260E-03  2.7528344872E-01
  5.3850000000E+03  6.4098783105E-01  5.1127487242E+00  3.5238345272E-03  3.5021675580E-03  2.7552241856E-01
  5.3900000000E+03  6.4149083770E-01  5.1099903842E+00  3.5327018852E-03  3.5109398482E-03  2.7576126416E-01
  5.3950000000E+03  6.4199377214E-01  5.1072360878E+00  3.5415832406E-03  3.5197258049E-03  2.7599998578E-01
  5.4000000000E+03  6.4249651917E-01  5.1044858254E+00  3.5504786022E-03  3.5285254325E-03  2.7623858362E-01
  5.4050000000E+03  6.4299919147E-01  5.1017395873E+00  3.5593879789E-03  3.5373387426E-03  2.7647705793E-01
  5.4100000000E+03  6.4350179171E-01  5.0989973640E+00  3.5683113798E-03  3.5461657433E-03  2.7671540894E-01
  5.4150000000E+03  6.4400431997E-01  5.0962591458E+00  3.5772488138E-03  3.5550064427E-03  2.7695363688E-01
  5.4200000000E+03  6.4450677633E-01  5.0935597996E+00  3.5862002897E-03  3.5638608659E-03  2.7719174197E-01
  5.4250000000E+03  6.4500916085E-01  5.0908689460E+00  3.5951658166E-03  3.5727290063E-03  2.7742972445E-01
  5.4300000000E+03  6.4551147362E-01  5.0881819908E+00  3.6041454033E-03  3.5816108698E-03  2.7766758454E-01
  5.4350000000E+03  6.4601371472E-01  5.0854989249E+00  3.6131390588E-03  3.5905064645E-03  2.7790532248E-01
  5.4400000000E+03  6.4651588421E-01  5.0828197390E+00  3.6221467921E-03  3.5994157983E-03  2.7814293849E-01
  5.4450000000E+03  6.4701798218E-01  5.0801444241E+00  3.6311686119E-03  3.6083388794E-03  2.7838043280E-01
  5.4500000000E+03  6.4752929890E-01  5.0774729708E+00  3.6402045273E-03  3.6172760058E-03  2.7861780565E-01
  5.4550000000E+03  6.4804060635E-01  5.0748053702E+00  3.6492545472E-03  3.6262268993E-03  2.7885505726E-01
  5.4600000000E+03  6.4855184855E-01  5.0721416132E+00  3.6583186804E-03  3.6351915664E-03  2.7909218785E-01
  5.4650000000E+03  6.4906302556E-01  5.0694816907E+00  3.6673969360E-03  3.6441700151E-03  2.7932919766E-01
  5.4700000000E+03  6.4957413744E-01  5.0668255936E+00  3.6764893227E-03  3.6531622534E-03  2.7956608691E-01
  5.4750000000E+03  6.5008518428E-01  5.0641733130E+00  3.6855958496E-03  3.6621682894E-03  2.7980285583E-01
  5.4800000000E+03  6.5059616612E-01  5.0615248400E+00  3.6947165254E-03  3.6711881311E-03  2.8003950465E-01
  5.4850000000E+03  6.5110708305E-01  5.0588801656E+00  3.7038513592E-03  3.6802217865E-03  2.8027603360E-01
  5.4900000000E+03  6.5161793513E-01  5.0562392808E+00  3.7130003597E-03  3.6892692636E-03  2.8051244290E-01
  5.4950000000E+03  6.5212872243E-01  5.0536021769E+00  3.7221635360E-03  3.6983305705E-03  2.8074873277E-01
  5.5000000000E+03  6.5263946305E-01  5.0509688450E+00  3.7313408968E-03  3.7074057158E-03  2.8098490345E-01
  5.5050000000E+03  6.5315014065E-01  5.0483564242E+00  3.7405699494E-03  3.7165317341E-03  2.8122095516E-01
  5.5100000000E+03  6.5366075367E-01  5.0457688991E+00  3.7498133520E-03  3.7256717618E-03  2.8145688813E-01
  5.5150000000E+03  6.5417130220E-01  5.0431850455E+00  3.7590711136E-03  3.7348257957E-03  2.8169270258E-01
  5.5200000000E+03  6.5468178628E-01  5.0406048547E+00  3.7683432434E-03  3.7439938439E-03  2.8192839873E-01
  5.5250000000E+03  6.5519220600E-01  5.0380283182E+00  3.7776297505E-03  3.7531759148E-03  2.8216397682E-01
  5.5300000000E+03  6.5570256142E-01  5.0354554277E+00  3.7869306439E-03  3.7623720164E-03  2.8239943707E-01
  5.5350000000E+03  6.5621285260E-01  5.0328861745E+00  3.7962459328E-03  3.7715821570E-03  2.8263477969E-01
  5.5400000000E+03  6.5672307961E-01  5.0303205504E+00  3.8055756263E-03  3.7808063447E-03  2.8287000493E-01
  5.5450000000E+03  6.5723324251E-01  5.0277585469E+00  3.8149197334E-03  3.7900445878E-03  2.8310511299E-01
  5.5500000000E+03  6.5775311456E-01  5.0252001556E+00  3.8242782633E-03  3.7992972205E-03  2.8334010411E-01
  5.5550000000E+03  6.5827622285E-01  5.0226453683E+00  3.8336512249E-03  3.8085640376E-03  2.8357497851E-01
  5.5600000000E+03  6.5879927597E-01  5.0200941765E+00  3.8430386276E-03  3.8178449377E-03  2.8380973641E-01
  5.5650000000E+03  6.5932227397E-01  5.0175465721E+00  3.8524404802E-03  3.8271399291E-03  2.8404437803E-01
  5.5700000000E+03  6.5984521692E-01  5.0150025467E+00  3.8618567918E-03  3.8364490200E-03  2.8427890361E-01
  5.5750000000E+03  6.6036810487E-01  5.0124620921E+00  3.8712875717E-03  3.8457722184E-03  2.8451331335E-01
  5.5800000000E+03  6.6089093787E-01  5.0099252001E+00  3.8807328287E-03  3.8551095327E-03  2.8474760749E-01
  5.5850000000E+03  6.6141371598E-01  5.0073918625E+00  3.8901925721E-03  3.8644609708E-03  2.8498178625E-01
  5.5900000000E+03  6.6193643925E-01  5.0048620712E+00  3.8996668108E-03  3.8738265411E-03  2.8521584984E-01
  5.5950000000E+03  6.6245910773E-01  5.0023628860E+00  3.9091555539E-03  3.8832062680E-03  2.8544979850E-01
  5.6000000000E+03  6.6298931517E-01  4.9998771906E+00  3.9186588105E-03  3.8926004113E-03  2.8568363244E-01
  5.6050000000E+03  6.6352757192E-01  4.9973949471E+00  3.9281765897E-03  3.9020089933E-03  2.8591735188E-01
  5.6100000000E+03  6.6406578512E-01  4.9949161475E+00  3.9377089005E-03  3.9114317442E-03  2.8615095705E-01
  5.6150000000E+03  6.6460395483E-01  4.9924407842E+00  3.9472557519E-03  3.9208686720E-03  2.8638444817E-01
  5.6200000000E+03  6.6514208109E-01  4.9899688492E+00  3.9568171531E-03  3.9303197850E-03  2.8661782546E-01
  5.6250000000E+03  6.6568016394E-01  4.9875003348E+00  3.9663931130E-03  3.9397850913E-03  2.8685108913E-01
  5.6300000000E+03  6.6621820342E-01  4.9850352331E+00  3.9759836408E-03  3.9492645991E-03  2.8708423944E-01
  5.6350000000E+03  6.6675619957E-01  4.9825735365E+00  3.9855887454E-03  3.9587583164E-03  2.8731727675E-01
  5.6400000000E+03  6.6729415244E-01  4.9801152373E+00  3.9952084359E-03  3.9682662514E-03  2.8755020131E-01
  5.6450000000E+03  6.6783206206E-01  4.9776603277E+00  4.0048427214E-03  3.9777884123E-03  2.8778301335E-01
  5.6500000000E+03  6.6836986910E-01  4.9752088000E+00  4.0144916108E-03  3.9873248050E-03  2.8801571309E-01
  5.6550000000E+03  6.6890722086E-01  4.9727606467E+00  4.0241551132E-03  3.9968754251E-03  2.8824830078E-01
  5.6600000000E+03  6.6944452916E-01  4.9703158601E+00  4.0338332377E-03  4.0064402954E-03  2.8848077663E-01
  5.6650000000E+03  6.6998179405E-01  4.9678744326E+00  4.0435259932E-03  4.0160194238E-03  2.8871314089E-01
  5.6700000000E+03  6.7051901556E-01  4.9654363566E+00  4.0532333889E-03  4.0256128186E-03  2.8894539379E-01
  5.6750000000E+03  6.7105619373E-01  4.9630016246E+00  4.0629554336E-03  4.0352204878E-03  2.8917753555E-01
  5.6800000000E+03  6.7159332862E-01  4.9605702291E+00  4.0726921365E-03  4.0448424396E-03  2.8940956640E-01
  5.6850000000E+03  6.7213042025E-01  4.9581682351E+00  4.0824435066E-03  4.0544786994E-03  2.8964148657E-01
  5.6900000000E+03  6.7266746868E-01  4.9557792863E+00  4.0922095528E-03  4.0641292647E-03  2.8987329630E-01
  5.6950000000E+03  6.7320447394E-01  4.9533935854E+00  4.1019902842E-03  4.0737941371E-03  2.9010499581E-01
  5.7000000000E+03  6.7374143608E-01  4.9510111251E+00  4.1117857098E-03  4.0834733247E-03  2.9033658533E-01
  5.7050000000E+03  6.7427857262E-01  4.9486318982E+00  4.1215958387E-03  4.0931668435E-03  2.9056806508E-01
  5.7100000000E+03  6.7481577247E-01  4.9462558974E+00  4.1314206797E-03  4.1028746976E-03  2.9079943531E-01
  5.7150000000E+03  6.7535292955E-01  4.9438831156E+00  4.1412602420E-03  4.1125968911E-03  2.9103069623E-01
  5.7200000000E+03  6.7589004389E-01  4.9415135455E+00  4.1511145344E-03  4.1223334323E-03  2.9126184808E-01
  5.7250000000E+03  6.7642711555E-01  4.9391471801E+00  4.1609835661E-03  4.1320843290E-03  2.9149289107E-01
  5.7300000000E+03  6.7696414456E-01  4.9367840122E+00  4.1708673460E-03  4.1418495895E-03  2.9172382544E-01
  5.7350000000E+03  6.7750113097E-01  4.9344240346E+00  4.1807658831E-03  4.1516292217E-03  2.9195465142E-01
  5.7400000000E+03  6.7803807481E-01  4.9320672404E+00  4.1906791864E-03  4.1614232336E-03  2.9218536923E-01
  5.7450000000E+03  6.7857497612E-01  4.9297136224E+00  4.2006072648E-03  4.1712316335E-03  2.9241597909E-01
  5.7500000000E+03  6.7911183494E-01  4.9273631737E+00  4.2105501275E-03  4.1810544292E-03  2.9264648124E-01
  5.7550000000E+03  6.7964913993E-01  4.9250158871E+00  4.2205077833E-03  4.1908916475E-03  2.9287687590E-01
  5.7600000000E+03  6.8018998725E-01  4.9226717558E+00  4.2304802412E-03  4.2007434146E-03  2.9310716329E-01
  5.7650000000E+03  6.8073079512E-01  4.9203307726E+00  4.2404675102E-03  4.2106096028E-03  2.9333734364E-01
  5.7700000000E+03  6.8127156357E-01  4.9179929308E+00  4.2504695993E-03  4.2204902202E-03  2.9356741718E-01
  5.7750000000E+03  6.8181229265E-01  4.9156732963E+00  4.2604865174E-03  4.2303852859E-03  2.9379738412E-01
  5.7800000000E+03  6.8235298239E-01  4.9133763420E+00  4.2705182736E-03  4.2402948115E-03  2.9402724470E-01
  5.7850000000E+03  6.8289363283E-01  4.9110824457E+00  4.2805648767E-03  4.2502187905E-03  2.9425699914E-01
  5.7900000000E+03  6.8343424401E-01  4.9087916007E+00  4.2906263358E-03  4.2601572311E-03  2.9448664766E-01
  5.7950000000E+03  6.8397481595E-01  4.9065038003E+00  4.3007026598E-03  4.2701101411E-03  2.9471619049E-01
  5.8000000000E+03  6.8451534871E-01  4.9042190380E+00  4.3107938577E-03  4.2800775287E-03  2.9494562785E-01
  5.8050000000E+03  6.8505584231E-01  4.9019373069E+00  4.3208999385E-03  4.2900594018E-03  2.9517495995E-01
  5.8100000000E+03  6.8559618763E-01  4.8996586006E+00  4.3310209110E-03  4.3000557641E-03  2.9540418704E-01
  5.8150000000E+03  6.8613637164E-01  4.8973829123E+00  4.3411567842E-03  4.3100666232E-03  2.9563330932E-01
  5.8200000000E+03  6.8667651643E-01  4.8951102355E+00  4.3513075672E-03  4.3200919917E-03  2.9586232702E-01
  5.8250000000E+03  6.8721662206E-01  4.8928405637E+00  4.3614732687E-03  4.3301318777E-03  2.9609124037E-01
  5.8300000000E+03  6.8775668854E-01  4.8905738902E+00  4.3716538979E-03  4.3401862891E-03  2.9632004958E-01
  5.8350000000E+03  6.8829671593E-01  4.8883102086E+00  4.3818494636E-03  4.3502552340E-03  2.9654875487E-01
  5.8400000000E+03  6.8883670425E-01  4.8860495124E+00  4.3920599747E-03  4.3603387203E-03  2.9677735647E-01
  5.8450000000E+03  6.8937665354E-01  4.8837917950E+00  4.4022854403E-03  4.3704367560E-03  2.9700585461E-01
  5.8500000000E+03  6.8991656383E-01  4.8815370500E+00  4.4125258691E-03  4.3805493490E-03  2.9723424949E-01
  5.8550000000E+03  6.9045643518E-01  4.8792852710E+00  4.4227812703E-03  4.3906765074E-03  2.9746254134E-01
  5.8600000000E+03  6.9099626760E-01  4.8770364515E+00  4.4330516526E-03  4.4008182392E-03  2.9769073038E-01
  5.8650000000E+03  6.9153589695E-01  4.8747905850E+00  4.4433370251E-03  4.4109745455E-03  2.9791881683E-01
  5.8700000000E+03  6.9207542473E-01  4.8725760733E+00  4.4536373966E-03  4.4211454618E-03  2.9814680091E-01
  5.8750000000E+03  6.9261491353E-01  4.8703695463E+00  4.4639527761E-03  4.4313309796E-03  2.9837468284E-01
  5.8800000000E+03  6.9315436340E-01  4.8681658944E+00  4.4742831724E-03  4.4415311028E-03  2.9860246284E-01
  5.8850000000E+03  6.9369377437E-01  4.8659651114E+00  4.4846285946E-03  4.4517458392E-03  2.9883014113E-01
  5.8900000000E+03  6.9423314647E-01  4.8637671910E+00  4.4949890515E-03  4.4619751969E-03  2.9905771792E-01
  5.8950000000E+03  6.9477247974E-01  4.8615721272E+00  4.5053645520E-03  4.4722191837E-03  2.9928519344E-01
  5.9000000000E+03  6.9531177422E-01  4.8593799138E+00  4.5157551051E-03  4.4824778075E-03  2.9951256791E-01
  5.9050000000E+03  6.9585102994E-01  4.8571905447E+00  4.5261607196E-03  4.4927510764E-03  2.9973984154E-01
  5.9100000000E+03  6.9639024694E-01  4.8550040137E+00  4.5365814045E-03  4.5030389982E-03  2.9996701455E-01
  5.9150000000E+03  6.9692942525E-01  4.8528203149E+00  4.5470171686E-03  4.5133415809E-03  3.0019408716E-01
  5.9200000000E+03  6.9746943033E-01  4.8506394422E+00  4.5574680209E-03  4.5236588687E-03  3.0042105958E-01
  5.9250000000E+03  6.9800951994E-01  4.8484613895E+00  4.5679339703E-03  4.5339908387E-03  3.0064793204E-01
  5.9300000000E+03  6.9854957166E-01  4.8462861508E+00  4.5784150256E-03  4.5443374935E-03  3.0087470474E-01
  5.9350000000E+03  6.9908958553E-01  4.8441137201E+00  4.5889111957E-03  4.5546988411E-03  3.0110137791E-01
  5.9400000000E+03  6.9962956158E-01  4.8419440914E+00  4.5994224896E-03  4.5650748894E-03  3.0132795177E-01
  5.9450000000E+03  7.0016949985E-01  4.8397772588E+00  4.6099489161E-03  4.5754656463E-03  3.0155442653E-01
  5.9500000000E+03  7.0070940037E-01  4.8376132162E+00  4.6204904841E-03  4.5858711197E-03  3.0178080240E-01
  5.9550000000E+03  7.0124926318E-01  4.8354519578E+00  4.6310472025E-03  4.5962913175E-03  3.0200707960E-01
  5.9600000000E+03  7.0178908830E-01  4.8332934777E+00  4.6416190802E-03  4.6067262475E-03  3.0223325835E-01
  5.9650000000E+03  7.0232887578E-01  4.8311689159E+00  4.6522061260E-03  4.6171759461E-03  3.0245933886E-01
  5.9700000000E+03  7.0286862565E-01  4.8290483072E+00  4.6628083488E-03  4.6276403941E-03  3.0268532135E-01
  5.9750000000E+03  7.0343024609E-01  4.8269304036E+00  4.6734257575E-03  4.6381205508E-03  3.0291120603E-01
  5.9800000000E+03  7.0399349461E-01  4.8248151992E+00  4.6840583610E-03  4.6486155498E-03  3.0313699312E-01
  5.9850000000E+03  7.0455672281E-01  4.8227026884E+00  4.6947061681E-03  4.6591253275E-03  3.0336268283E-01
  5.9900000000E+03  7.0511993072E-01  4.8205928655E+00  4.7053691878E-03  4.6696498919E-03  3.0358827538E-01
  5.9950000000E+03  7.0568311836E-01  4.8184857248E+00  4.7160474288E-03  4.6801892508E-03  3.0381377098E-01
  6.0000000000E+03  7.0624628575E-01  4.8163812607E+00  4.7267409000E-03  4.6907434121E-03  3.0403916984E-01
  6.0050000000E+03  7.0680943289E-01  4.8142794676E+00  4.7375636373E-03  4.7014246778E-03  3.0426447217E-01
  6.0100000000E+03  7.0737255981E-01  4.8121803398E+00  4.7484020494E-03  4.7121211762E-03  3.0448967820E-01
  6.0150000000E+03  7.0793566653E-01  4.8100838718E+00  4.7592561456E-03  4.7228329159E-03  3.0471478814E-01
  6.0200000000E+03  7.0849875306E-01  4.8079900579E+00  4.7701259355E-03  4.7335599053E-03  3.0493980219E-01
  6.0250000000E+03  7.0906181943E-01  4.8058988927E+00  4.7810114285E-03  4.7443021529E-03  3.0516472056E-01
  6.0300000000E+03  7.0962555187E-01  4.8038103706E+00  4.7919126341E-03  4.7550596979E-03  3.0538954349E-01
  6.0350000000E+03  7.1018935831E-01  4.8017244860E+00  4.8028295619E-03  4.7658325223E-03  3.0561427116E-01
  6.0400000000E+03  7.1075314522E-01  4.7996412334E+00  4.8137622213E-03  4.7766206305E-03  3.0583890380E-01
  6.0450000000E+03  7.1131691263E-01  4.7975606074E+00  4.8247106217E-03  4.7874240308E-03  3.0606344163E-01
  6.0500000000E+03  7.1188066054E-01  4.7954826024E+00  4.8356747727E-03  4.7982427318E-03  3.0628788484E-01
  6.0550000000E+03  7.1244438898E-01  4.7934072131E+00  4.8466546837E-03  4.8090767417E-03  3.0651223365E-01
  6.0600000000E+03  7.1300809796E-01  4.7913585281E+00  4.8576503643E-03  4.8199260935E-03  3.0673648827E-01
  6.0650000000E+03  7.1357178750E-01  4.7893195385E+00  4.8686618237E-03  4.8307907787E-03  3.0696064892E-01
  6.0700000000E+03  7.1413545761E-01  4.7872830959E+00  4.8796890716E-03  4.8416707984E-03  3.0718471581E-01
  6.0750000000E+03  7.1469910831E-01  4.7852491948E+00  4.8907321174E-03  4.8525661611E-03  3.0740868914E-01
  6.0800000000E+03  7.1526273963E-01  4.7832178301E+00  4.9017909706E-03  4.8634768752E-03  3.0763256915E-01
  6.0850000000E+03  7.1583137514E-01  4.7811889964E+00  4.9128656406E-03  4.8744031820E-03  3.0785635633E-01
  6.0900000000E+03  7.1640185387E-01  4.7791626887E+00  4.9239561368E-03  4.8853449451E-03  3.0808005096E-01
  6.0950000000E+03  7.1697231850E-01  4.7771389016E+00  4.9350624688E-03  4.8963020868E-03  3.0830365323E-01
  6.1000000000E+03  7.1754276904E-01  4.7751176300E+00  4.9461846459E-03  4.9072746156E-03  3.0852716333E-01
  6.1050000000E+03  7.1811320550E-01  4.7730988687E+00  4.9573226777E-03  4.9182625400E-03  3.0875058147E-01
  6.1100000000E+03  7.1868362790E-01  4.7710826124E+00  4.9684765736E-03  4.9292658683E-03  3.0897390785E-01
  6.1150000000E+03  7.1925403625E-01  4.7690688562E+00  4.9796463429E-03  4.9402846089E-03  3.0919714266E-01
  6.1200000000E+03  7.1982443055E-01  4.7670575947E+00  4.9908319953E-03  4.9513187701E-03  3.0942028610E-01
  6.1250000000E+03  7.2039481083E-01  4.7650488229E+00  5.0020335400E-03  4.9623683605E-03  3.0964333838E-01
  6.1300000000E+03  7.2096517709E-01  4.7630425357E+00  5.0132509866E-03  4.9734333882E-03  3.0986629968E-01
  6.1350000000E+03  7.2153552934E-01  4.7610387280E+00  5.0244843445E-03  4.9845138619E-03  3.1008917021E-01
  6.1400000000E+03  7.2210584960E-01  4.7590373947E+00  5.0357336231E-03  4.9956097888E-03  3.1031195016E-01
  6.1450000000E+03  7.2267613603E-01  4.7570385307E+00  5.0469988319E-03  5.0067211773E-03  3.1053463974E-01
  6.1500000000E+03  7.2324640847E-01  4.7550421310E+00  5.0582799802E-03  5.0178480368E-03  3.1075723913E-01
  6.1550000000E+03  7.2381666691E-01  4.7530563767E+00  5.0695770776E-03  5.0289903847E-03  3.1097974853E-01
  6.1600000000E+03  7.2438691139E-01  4.7510949172E+00  5.0808901333E-03  5.0401482449E-03  3.1120216815E-01
  6.1650000000E+03  7.2495714189E-01  4.7491358576E+00  5.0922191570E-03  5.0513216014E-03  3.1142449817E-01
  6.1700000000E+03  7.2552735845E-01  4.7471791930E+00  5.1035641579E-03  5.0625104625E-03  3.1164673879E-01
  6.1750000000E+03  7.2609756106E-01  4.7452249185E+00  5.1149251455E-03  5.0737148366E-03  3.1186889022E-01
  6.1800000000E+03  7.2666774975E-01  4.7432730294E+00  5.1263021292E-03  5.0849347320E-03  3.1209095264E-01
  6.1850000000E+03  7.2723792452E-01  4.7413235208E+00  5.1376951184E-03  5.0961701571E-03  3.1231292625E-01
  6.1900000000E+03  7.2780808538E-01  4.7393763878E+00  5.1491041226E-03  5.1074211202E-03  3.1253481124E-01
  6.1950000000E+03  7.2837817052E-01  4.7374316256E+00  5.1605291511E-03  5.1186876265E-03  3.1275660782E-01
  6.2000000000E+03  7.2894777937E-01  4.7354892295E+00  5.1719702134E-03  5.1299696646E-03  3.1297831617E-01
  6.2050000000E+03  7.2951737396E-01  4.7335491946E+00  5.1834273188E-03  5.1412672654E-03  3.1319993649E-01
  6.2100000000E+03  7.3008695429E-01  4.7316115162E+00  5.1949004768E-03  5.1525804374E-03  3.1342146898E-01
  6.2150000000E+03  7.3065652038E-01  4.7296761896E+00  5.2063896968E-03  5.1639091888E-03  3.1364291382E-01
  6.2200000000E+03  7.3122607223E-01  4.7277432099E+00  5.2178949881E-03  5.1752535280E-03  3.1386427122E-01
  6.2250000000E+03  7.3179560986E-01  4.7258125725E+00  5.2294163602E-03  5.1866134632E-03  3.1408554137E-01
  6.2300000000E+03  7.3236513329E-01  4.7238842727E+00  5.2409538224E-03  5.1979890027E-03  3.1430672445E-01
  6.2350000000E+03  7.3293464251E-01  4.7219583057E+00  5.2525073842E-03  5.2093801549E-03  3.1452782068E-01
  6.2400000000E+03  7.3350413756E-01  4.7200346668E+00  5.2640770549E-03  5.2207869281E-03  3.1474883023E-01
  6.2450000000E+03  7.3407361842E-01  4.7181133514E+00  5.2756628439E-03  5.2322093304E-03  3.1496975330E-01
  6.2500000000E+03  7.3464308513E-01  4.7161943548E+00  5.2872647606E-03  5.2436473703E-03  3.1519059009E-01
  6.2550000000E+03  7.3521250814E-01  4.7142909500E+00  5.2988828144E-03  5.2551010710E-03  3.1541134078E-01
  6.2600000000E+03  7.3578190135E-01  4.7124054512E+00  5.3105170147E-03  5.2665704446E-03  3.1563200557E-01
  6.2650000000E+03  7.3635128040E-01  4.7105222111E+00  5.3221673708E-03  5.2780554809E-03  3.1585258466E-01
  6.2700000000E+03  7.3692064530E-01  4.7086412251E+00  5.3338338922E-03  5.2895561881E-03  3.1607307823E-01
  6.2750000000E+03  7.3748999606E-01  4.7067624887E+00  5.3455165881E-03  5.3010725745E-03  3.1629348648E-01
  6.2800000000E+03  7.3805933270E-01  4.7048859974E+00  5.3572154680E-03  5.3126046483E-03  3.1651380960E-01
  6.2850000000E+03  7.3862865522E-01  4.7030117467E+00  5.3689305413E-03  5.3241524179E-03  3.1673404777E-01
  6.2900000000E+03  7.3919796364E-01  4.7011397323E+00  5.3806618172E-03  5.3357158915E-03  3.1695420120E-01
  6.2950000000E+03  7.3976725797E-01  4.6992699496E+00  5.3924093052E-03  5.3472950772E-03  3.1717427007E-01
  6.3000000000E+03  7.4033653822E-01  4.6974023942E+00  5.4041730147E-03  5.3588899835E-03  3.1739425458E-01
  6.3050000000E+03  7.4090580440E-01  4.6955370617E+00  5.4159529549E-03  5.3705006185E-03  3.1761415491E-01
  6.3100000000E+03  7.4147501022E-01  4.6936739478E+00  5.4277491353E-03  5.3821269880E-03  3.1783397126E-01
  6.3150000000E+03  7.4204370965E-01  4.6918130479E+00  5.4395615652E-03  5.3937690768E-03  3.1805370382E-01
  6.3200000000E+03  7.4261239464E-01  4.6899543578E+00  5.4513902540E-03  5.4054269187E-03  3.1827335277E-01
  6.3250000000E+03  7.4318106522E-01  4.6880978730E+00  5.4632352110E-03  5.4171005222E-03  3.1849291832E-01
  6.3300000000E+03  7.4374972138E-01  4.6862435893E+00  5.4750964455E-03  5.4287898954E-03  3.1871240064E-01
  6.3350000000E+03  7.4431836315E-01  4.6843915022E+00  5.4869739669E-03  5.4404950465E-03  3.1893179992E-01
  6.3400000000E+03  7.4488699053E-01  4.6825416074E+00  5.4988677846E-03  5.4522159837E-03  3.1915111637E-01
  6.3450000000E+03  7.4545560354E-01  4.6806939006E+00  5.5107779079E-03  5.4639527154E-03  3.1937035016E-01
  6.3500000000E+03  7.4602420219E-01  4.6788483776E+00  5.5227043462E-03  5.4757052496E-03  3.1958950149E-01
