#[MATERIAL DEFINITION FOR MC-GPU: interaction mean free path and sampling data from PENELOPE 2018]
#[MATERIAL NAME]
# spine_cervical                                                
#[NOMINAL DENSITY (g/cm^3)]
#   1.13500000
#[NUMBER OF DATA VALUES]
#  23002
#[MEAN FREE PATHS (cm) (ie, average distance between interactions)]
#[Energy (eV)     | Rayleigh        | Compton         | Photoelectric   | TOTAL (+pair prod) (cm) | Rayleigh: max cumul prob F^2]
  5.0000000000E+03  1.5871726350E+00  7.3636500127E+00  1.4104413899E-02  1.3953687376E-02  3.0917775270E-01
  5.0050000000E+03  1.5888121974E+00  7.3597112376E+00  1.4144284573E-02  1.3992822343E-02  3.0943151615E-01
  5.0100000000E+03  1.5904518139E+00  7.3557784991E+00  1.4184227295E-02  1.4032026474E-02  3.0968506855E-01
  5.0150000000E+03  1.5920907605E+00  7.3518517819E+00  1.4224242120E-02  1.4071299761E-02  3.0993841039E-01
  5.0200000000E+03  1.5937293277E+00  7.3479310707E+00  1.4264329106E-02  1.4110642272E-02  3.1019154218E-01
  5.0250000000E+03  1.5953679475E+00  7.3440163505E+00  1.4304488309E-02  1.4150054089E-02  3.1044446440E-01
  5.0300000000E+03  1.5970066199E+00  7.3401076061E+00  1.4344719784E-02  1.4189535261E-02  3.1069717755E-01
  5.0350000000E+03  1.5986453448E+00  7.3362048225E+00  1.4385023587E-02  1.4229085833E-02  3.1094968211E-01
  5.0400000000E+03  1.6002841223E+00  7.3323079847E+00  1.4425399775E-02  1.4268705853E-02  3.1120197858E-01
  5.0450000000E+03  1.6019229522E+00  7.3284170777E+00  1.4465848404E-02  1.4308395370E-02  3.1145406745E-01
  5.0500000000E+03  1.6035618346E+00  7.3245320866E+00  1.4506369530E-02  1.4348154429E-02  3.1170594919E-01
  5.0550000000E+03  1.6052007692E+00  7.3206529967E+00  1.4546963209E-02  1.4387983079E-02  3.1195762429E-01
  5.0600000000E+03  1.6068494651E+00  7.3167797930E+00  1.4587629496E-02  1.4427882150E-02  3.1220909324E-01
  5.0650000000E+03  1.6085162640E+00  7.3129124610E+00  1.4628368449E-02  1.4467852371E-02  3.1246035653E-01
  5.0700000000E+03  1.6101831448E+00  7.3090509858E+00  1.4669180122E-02  1.4507892343E-02  3.1271141462E-01
  5.0750000000E+03  1.6118501073E+00  7.3051953529E+00  1.4710064573E-02  1.4548002112E-02  3.1296226799E-01
  5.0800000000E+03  1.6135171515E+00  7.3013455477E+00  1.4751021856E-02  1.4588181726E-02  3.1321291714E-01
  5.0850000000E+03  1.6151842772E+00  7.2975629257E+00  1.4792052028E-02  1.4628431478E-02  3.1346336253E-01
  5.0900000000E+03  1.6168514845E+00  7.2937919290E+00  1.4833155145E-02  1.4668751196E-02  3.1371360463E-01
  5.0950000000E+03  1.6185187733E+00  7.2900265806E+00  1.4874331263E-02  1.4709140903E-02  3.1396364393E-01
  5.1000000000E+03  1.6201861434E+00  7.2862668664E+00  1.4915580438E-02  1.4749600647E-02  3.1421348089E-01
  5.1050000000E+03  1.6218535948E+00  7.2825127726E+00  1.4956902725E-02  1.4790130474E-02  3.1446311599E-01
  5.1100000000E+03  1.6235270666E+00  7.2787642853E+00  1.4998298181E-02  1.4830730926E-02  3.1471254969E-01
  5.1150000000E+03  1.6252006859E+00  7.2750213906E+00  1.5039766861E-02  1.4871401566E-02  3.1496178246E-01
  5.1200000000E+03  1.6268743928E+00  7.2712840747E+00  1.5081308821E-02  1.4912142433E-02  3.1521081478E-01
  5.1250000000E+03  1.6285481872E+00  7.2675523238E+00  1.5122924117E-02  1.4952953576E-02  3.1545964710E-01
  5.1300000000E+03  1.6302220689E+00  7.2638261244E+00  1.5164612806E-02  1.4993835041E-02  3.1570827989E-01
  5.1350000000E+03  1.6318960379E+00  7.2601054626E+00  1.5206374941E-02  1.5034786875E-02  3.1595671361E-01
  5.1400000000E+03  1.6335700941E+00  7.2563903249E+00  1.5248210581E-02  1.5075809125E-02  3.1620494869E-01
  5.1450000000E+03  1.6352442375E+00  7.2526806977E+00  1.5290119779E-02  1.5116901838E-02  3.1645298542E-01
  5.1500000000E+03  1.6369184679E+00  7.2489765676E+00  1.5332102593E-02  1.5158065060E-02  3.1670082429E-01
  5.1550000000E+03  1.6385947771E+00  7.2452779210E+00  1.5374159077E-02  1.5199299010E-02  3.1694846579E-01
  5.1600000000E+03  1.6402728595E+00  7.2415847445E+00  1.5416289288E-02  1.5240603710E-02  3.1719591043E-01
  5.1650000000E+03  1.6419510327E+00  7.2379330631E+00  1.5458493280E-02  1.5281979222E-02  3.1744315871E-01
  5.1700000000E+03  1.6436292965E+00  7.2343157520E+00  1.5500771111E-02  1.5323425565E-02  3.1769021111E-01
  5.1750000000E+03  1.6453076509E+00  7.2307037428E+00  1.5543122836E-02  1.5364942657E-02  3.1793706814E-01
  5.1800000000E+03  1.6469860958E+00  7.2270970226E+00  1.5585548509E-02  1.5406530545E-02  3.1818373029E-01
  5.1850000000E+03  1.6486646312E+00  7.2234955786E+00  1.5628048188E-02  1.5448189274E-02  3.1843019804E-01
  5.1900000000E+03  1.6503432569E+00  7.2198993979E+00  1.5670621927E-02  1.5489918891E-02  3.1867647189E-01
  5.1950000000E+03  1.6520219729E+00  7.2163084679E+00  1.5713269782E-02  1.5531719444E-02  3.1892255232E-01
  5.2000000000E+03  1.6537007790E+00  7.2127227757E+00  1.5755991809E-02  1.5573590978E-02  3.1916843983E-01
  5.2050000000E+03  1.6553796640E+00  7.2091423088E+00  1.5798788063E-02  1.5615533538E-02  3.1941413489E-01
  5.2100000000E+03  1.6570586390E+00  7.2055670546E+00  1.5841658601E-02  1.5657547173E-02  3.1965963800E-01
  5.2150000000E+03  1.6587377040E+00  7.2019970003E+00  1.5884603476E-02  1.5699631929E-02  3.1990494963E-01
  5.2200000000E+03  1.6604168588E+00  7.1984321336E+00  1.5927622746E-02  1.5741787852E-02  3.2015007026E-01
  5.2250000000E+03  1.6620961034E+00  7.1948724419E+00  1.5970716466E-02  1.5784014988E-02  3.2039500038E-01
  5.2300000000E+03  1.6637754377E+00  7.1913179127E+00  1.6013884690E-02  1.5826313383E-02  3.2063974046E-01
  5.2350000000E+03  1.6654548615E+00  7.1877685337E+00  1.6057127476E-02  1.5868683085E-02  3.2088429098E-01
  5.2400000000E+03  1.6671343749E+00  7.1842242924E+00  1.6100444877E-02  1.5911124138E-02  3.2112865242E-01
  5.2450000000E+03  1.6688139778E+00  7.1806851766E+00  1.6143880868E-02  1.5953679480E-02  3.2137282524E-01
  5.2500000000E+03  1.6704954161E+00  7.1772097941E+00  1.6187577073E-02  1.5996487846E-02  3.2161680993E-01
  5.2550000000E+03  1.6721797247E+00  7.1737436117E+00  1.6231349174E-02  1.6039369050E-02  3.2186060695E-01
  5.2600000000E+03  1.6738641272E+00  7.1702823972E+00  1.6275197228E-02  1.6082322866E-02  3.2210421677E-01
  5.2650000000E+03  1.6755486237E+00  7.1668261389E+00  1.6319121295E-02  1.6125349342E-02  3.2234763987E-01
  5.2700000000E+03  1.6772332139E+00  7.1633748250E+00  1.6363121431E-02  1.6168448527E-02  3.2259087670E-01
  5.2750000000E+03  1.6789178980E+00  7.1599284437E+00  1.6407197694E-02  1.6211620468E-02  3.2283392774E-01
  5.2800000000E+03  1.6806026757E+00  7.1564869833E+00  1.6451350142E-02  1.6254865214E-02  3.2307679345E-01
  5.2850000000E+03  1.6822875469E+00  7.1530504321E+00  1.6495578833E-02  1.6298182812E-02  3.2331947429E-01
  5.2900000000E+03  1.6839725117E+00  7.1496187785E+00  1.6539883824E-02  1.6341573311E-02  3.2356197072E-01
  5.2950000000E+03  1.6856575699E+00  7.1461920109E+00  1.6584265174E-02  1.6385036758E-02  3.2380428321E-01
  5.3000000000E+03  1.6873558721E+00  7.1427701177E+00  1.6628722939E-02  1.6428574449E-02  3.2404641222E-01
  5.3050000000E+03  1.6890606457E+00  7.1393530875E+00  1.6673257177E-02  1.6472185799E-02  3.2428835820E-01
  5.3100000000E+03  1.6907655333E+00  7.1359409086E+00  1.6717867946E-02  1.6515870255E-02  3.2453012160E-01
  5.3150000000E+03  1.6924705347E+00  7.1325335698E+00  1.6762555304E-02  1.6559627867E-02  3.2477170289E-01
  5.3200000000E+03  1.6941756498E+00  7.1291310595E+00  1.6807319309E-02  1.6603458680E-02  3.2501310253E-01
  5.3250000000E+03  1.6958808785E+00  7.1257333664E+00  1.6852160017E-02  1.6647362744E-02  3.2525432095E-01
  5.3300000000E+03  1.6975862208E+00  7.1223431740E+00  1.6897077487E-02  1.6691340122E-02  3.2549535861E-01
  5.3350000000E+03  1.6992916766E+00  7.1190157813E+00  1.6942071776E-02  1.6735391165E-02  3.2573621597E-01
  5.3400000000E+03  1.7009972456E+00  7.1156930580E+00  1.6987142941E-02  1.6779515606E-02  3.2597689347E-01
  5.3450000000E+03  1.7027029279E+00  7.1123749930E+00  1.7032291041E-02  1.6823713492E-02  3.2621739156E-01
  5.3500000000E+03  1.7044136485E+00  7.1090615755E+00  1.7077516133E-02  1.6867985353E-02  3.2645771069E-01
  5.3550000000E+03  1.7061252107E+00  7.1057527946E+00  1.7122818273E-02  1.6912330829E-02  3.2669785130E-01
  5.3600000000E+03  1.7078368919E+00  7.1024486396E+00  1.7168197521E-02  1.6956749898E-02  3.2693781384E-01
  5.3650000000E+03  1.7095486919E+00  7.0991490997E+00  1.7213653932E-02  1.7001242606E-02  3.2717759874E-01
  5.3700000000E+03  1.7112606108E+00  7.0958541641E+00  1.7259187566E-02  1.7045809002E-02  3.2741720646E-01
  5.3750000000E+03  1.7129726483E+00  7.0925638221E+00  1.7304798478E-02  1.7090449133E-02  3.2765663743E-01
  5.3800000000E+03  1.7146848044E+00  7.0892780631E+00  1.7350486728E-02  1.7135163046E-02  3.2789589209E-01
  5.3850000000E+03  1.7163970790E+00  7.0859968764E+00  1.7396252371E-02  1.7179950790E-02  3.2813497088E-01
  5.3900000000E+03  1.7181094719E+00  7.0827202515E+00  1.7442095466E-02  1.7224812411E-02  3.2837387423E-01
  5.3950000000E+03  1.7198219831E+00  7.0794481777E+00  1.7488016070E-02  1.7269747958E-02  3.2861260258E-01
  5.4000000000E+03  1.7215345775E+00  7.0761806446E+00  1.7534014240E-02  1.7314757473E-02  3.2885115637E-01
  5.4050000000E+03  1.7232472892E+00  7.0729176416E+00  1.7580090034E-02  1.7359841008E-02  3.2908953603E-01
  5.4100000000E+03  1.7249601188E+00  7.0696591582E+00  1.7626243509E-02  1.7404998609E-02  3.2932774199E-01
  5.4150000000E+03  1.7266730662E+00  7.0664051842E+00  1.7672474722E-02  1.7450230326E-02  3.2956577468E-01
  5.4200000000E+03  1.7283861314E+00  7.0632075580E+00  1.7718783732E-02  1.7495536522E-02  3.2980363453E-01
  5.4250000000E+03  1.7300993142E+00  7.0600211282E+00  1.7765170594E-02  1.7540916972E-02  3.3004132197E-01
  5.4300000000E+03  1.7318126145E+00  7.0568390695E+00  1.7811635367E-02  1.7586371682E-02  3.3027883743E-01
  5.4350000000E+03  1.7335260322E+00  7.0536613716E+00  1.7858178108E-02  1.7631900700E-02  3.3051618133E-01
  5.4400000000E+03  1.7352395673E+00  7.0504880248E+00  1.7904798874E-02  1.7677504071E-02  3.3075335410E-01
  5.4450000000E+03  1.7369532195E+00  7.0473190189E+00  1.7951497722E-02  1.7723181844E-02  3.3099035616E-01
  5.4500000000E+03  1.7387098924E+00  7.0441543442E+00  1.7998274710E-02  1.7768938547E-02  3.3122718794E-01
  5.4550000000E+03  1.7404669876E+00  7.0409939907E+00  1.8045129895E-02  1.7814769805E-02  3.3146384986E-01
  5.4600000000E+03  1.7422242462E+00  7.0378379485E+00  1.8092063334E-02  1.7860675639E-02  3.3170034234E-01
  5.4650000000E+03  1.7439816682E+00  7.0346862079E+00  1.8139075084E-02  1.7906656097E-02  3.3193666579E-01
  5.4700000000E+03  1.7457392533E+00  7.0315387590E+00  1.8186165203E-02  1.7952711224E-02  3.3217282064E-01
  5.4750000000E+03  1.7474970015E+00  7.0283955922E+00  1.8233333747E-02  1.7998841070E-02  3.3240880731E-01
  5.4800000000E+03  1.7492549126E+00  7.0252566976E+00  1.8280580775E-02  1.8045045679E-02  3.3264462620E-01
  5.4850000000E+03  1.7510129864E+00  7.0221220655E+00  1.8327906343E-02  1.8091325100E-02  3.3288027774E-01
  5.4900000000E+03  1.7527712228E+00  7.0189916864E+00  1.8375310508E-02  1.8137679380E-02  3.3311576234E-01
  5.4950000000E+03  1.7545296218E+00  7.0158655505E+00  1.8422793327E-02  1.8184108565E-02  3.3335108041E-01
  5.5000000000E+03  1.7562894856E+00  7.0127436483E+00  1.8470354858E-02  1.8230612842E-02  3.3358623236E-01
  5.5050000000E+03  1.7580496294E+00  7.0096512891E+00  1.8518214694E-02  1.8277406167E-02  3.3382121861E-01
  5.5100000000E+03  1.7598099369E+00  7.0065943659E+00  1.8566154274E-02  1.8324275630E-02  3.3405603956E-01
  5.5150000000E+03  1.7615704079E+00  7.0035415468E+00  1.8614173660E-02  1.8371221068E-02  3.3429069563E-01
  5.5200000000E+03  1.7633310423E+00  7.0004928224E+00  1.8662272908E-02  1.8418242528E-02  3.3452518722E-01
  5.5250000000E+03  1.7650918400E+00  6.9974481837E+00  1.8710452078E-02  1.8465340059E-02  3.3475951474E-01
  5.5300000000E+03  1.7668528008E+00  6.9944076214E+00  1.8758711228E-02  1.8512513709E-02  3.3499367859E-01
  5.5350000000E+03  1.7686139245E+00  6.9913711264E+00  1.8807050417E-02  1.8559763526E-02  3.3522767917E-01
  5.5400000000E+03  1.7703752112E+00  6.9883386897E+00  1.8855469704E-02  1.8607089558E-02  3.3546151690E-01
  5.5450000000E+03  1.7721366605E+00  6.9853103021E+00  1.8903969147E-02  1.8654491852E-02  3.3569519218E-01
  5.5500000000E+03  1.7739061560E+00  6.9822859546E+00  1.8952548805E-02  1.8701971334E-02  3.3592870539E-01
  5.5550000000E+03  1.7756784801E+00  6.9792656381E+00  1.9001208735E-02  1.8749527478E-02  3.3616205696E-01
  5.5600000000E+03  1.7774509779E+00  6.9762493437E+00  1.9049948998E-02  1.8797160037E-02  3.3639524727E-01
  5.5650000000E+03  1.7792236494E+00  6.9732370624E+00  1.9098769651E-02  1.8844869059E-02  3.3662827672E-01
  5.5700000000E+03  1.7809964944E+00  6.9702287852E+00  1.9147670752E-02  1.8892654592E-02  3.3686114571E-01
  5.5750000000E+03  1.7827695129E+00  6.9672245033E+00  1.9196652361E-02  1.8940516685E-02  3.3709385464E-01
  5.5800000000E+03  1.7845427046E+00  6.9642242078E+00  1.9245714536E-02  1.8988455384E-02  3.3732640391E-01
  5.5850000000E+03  1.7863160695E+00  6.9612278898E+00  1.9294857335E-02  1.9036470737E-02  3.3755879390E-01
  5.5900000000E+03  1.7880896073E+00  6.9582355405E+00  1.9344080817E-02  1.9084562793E-02  3.3779102501E-01
  5.5950000000E+03  1.7898633180E+00  6.9552867832E+00  1.9393385040E-02  1.9132731898E-02  3.3802309764E-01
  5.6000000000E+03  1.7916437742E+00  6.9523565668E+00  1.9442770063E-02  1.9180978669E-02  3.3825501217E-01
  5.6050000000E+03  1.7934314215E+00  6.9494301984E+00  1.9492235944E-02  1.9229303101E-02  3.3848676899E-01
  5.6100000000E+03  1.7952192561E+00  6.9465076695E+00  1.9541782742E-02  1.9277704441E-02  3.3871836851E-01
  5.6150000000E+03  1.7970072778E+00  6.9435889715E+00  1.9591410514E-02  1.9326182737E-02  3.3894981109E-01
  5.6200000000E+03  1.7987954865E+00  6.9406740961E+00  1.9641119320E-02  1.9374738037E-02  3.3918109713E-01
  5.6250000000E+03  1.8005838821E+00  6.9377630349E+00  1.9690909218E-02  1.9423370388E-02  3.3941222703E-01
  5.6300000000E+03  1.8023724644E+00  6.9348557795E+00  1.9740780266E-02  1.9472079837E-02  3.3964320121E-01
  5.6350000000E+03  1.8041612332E+00  6.9319523215E+00  1.9790732522E-02  1.9520866432E-02  3.3987402037E-01
  5.6400000000E+03  1.8059501884E+00  6.9290526526E+00  1.9840766045E-02  1.9569730221E-02  3.4010468495E-01
  5.6450000000E+03  1.8077393300E+00  6.9261567646E+00  1.9890880893E-02  1.9618671251E-02  3.4033519538E-01
  5.6500000000E+03  1.8095286271E+00  6.9232646491E+00  1.9941077124E-02  1.9667689566E-02  3.4056555209E-01
  5.6550000000E+03  1.8113178979E+00  6.9203762979E+00  1.9991354797E-02  1.9716785191E-02  3.4079575549E-01
  5.6600000000E+03  1.8131073544E+00  6.9174917028E+00  2.0041713971E-02  1.9765958200E-02  3.4102580600E-01
  5.6650000000E+03  1.8148969962E+00  6.9146108556E+00  2.0092154702E-02  1.9815208638E-02  3.4125570404E-01
  5.6700000000E+03  1.8166868234E+00  6.9117337481E+00  2.0142677051E-02  1.9864536554E-02  3.4148545003E-01
  5.6750000000E+03  1.8184768356E+00  6.9088603722E+00  2.0193281074E-02  1.9913941995E-02  3.4171504439E-01
  5.6800000000E+03  1.8202670329E+00  6.9059907197E+00  2.0243966830E-02  1.9963425008E-02  3.4194448753E-01
  5.6850000000E+03  1.8220574150E+00  6.9031626151E+00  2.0294734377E-02  2.0012985958E-02  3.4217377986E-01
  5.6900000000E+03  1.8238479819E+00  6.9003523342E+00  2.0345583774E-02  2.0062624698E-02  3.4240292181E-01
  5.6950000000E+03  1.8256387332E+00  6.8975456642E+00  2.0396515079E-02  2.0112341155E-02  3.4263191377E-01
  5.7000000000E+03  1.8274296690E+00  6.8947425974E+00  2.0447528350E-02  2.0162135376E-02  3.4286075616E-01
  5.7050000000E+03  1.8292209047E+00  6.8919431260E+00  2.0498623645E-02  2.0212007424E-02  3.4308944939E-01
  5.7100000000E+03  1.8310123810E+00  6.8891472423E+00  2.0549801022E-02  2.0261957338E-02  3.4331799387E-01
  5.7150000000E+03  1.8328040415E+00  6.8863549384E+00  2.0601060540E-02  2.0311985158E-02  3.4354639001E-01
  5.7200000000E+03  1.8345958861E+00  6.8835662067E+00  2.0652402256E-02  2.0362090931E-02  3.4377463821E-01
  5.7250000000E+03  1.8363879145E+00  6.8807810395E+00  2.0703826229E-02  2.0412274704E-02  3.4400273887E-01
  5.7300000000E+03  1.8381801267E+00  6.8779994291E+00  2.0755332517E-02  2.0462536524E-02  3.4423069241E-01
  5.7350000000E+03  1.8399725225E+00  6.8752213679E+00  2.0806921178E-02  2.0512876437E-02  3.4445849923E-01
  5.7400000000E+03  1.8417651018E+00  6.8724468483E+00  2.0858592270E-02  2.0563294492E-02  3.4468615972E-01
  5.7450000000E+03  1.8435578644E+00  6.8696758627E+00  2.0910345851E-02  2.0613790733E-02  3.4491367429E-01
  5.7500000000E+03  1.8453508102E+00  6.8669084035E+00  2.0962181979E-02  2.0664365209E-02  3.4514104334E-01
  5.7550000000E+03  1.8471443861E+00  6.8641444631E+00  2.1014100713E-02  2.0715018022E-02  3.4536826727E-01
  5.7600000000E+03  1.8489414256E+00  6.8613840341E+00  2.1066102110E-02  2.0765749576E-02  3.4559534647E-01
  5.7650000000E+03  1.8507386519E+00  6.8586271089E+00  2.1118186228E-02  2.0816559509E-02  3.4582228135E-01
  5.7700000000E+03  1.8525360648E+00  6.8558736801E+00  2.1170353126E-02  2.0867447865E-02  3.4604907230E-01
  5.7750000000E+03  1.8543336642E+00  6.8531454090E+00  2.1222602861E-02  2.0918414894E-02  3.4627571971E-01
  5.7800000000E+03  1.8561314499E+00  6.8504487333E+00  2.1274935491E-02  2.0969460706E-02  3.4650222398E-01
  5.7850000000E+03  1.8579294218E+00  6.8477554491E+00  2.1327351075E-02  2.1020585087E-02  3.4672858550E-01
  5.7900000000E+03  1.8597275798E+00  6.8450655492E+00  2.1379849670E-02  2.1071788083E-02  3.4695480466E-01
  5.7950000000E+03  1.8615259237E+00  6.8423790265E+00  2.1432431334E-02  2.1123069740E-02  3.4718088185E-01
  5.8000000000E+03  1.8633244533E+00  6.8396958737E+00  2.1485096126E-02  2.1174430105E-02  3.4740681747E-01
  5.8050000000E+03  1.8651231686E+00  6.8370160838E+00  2.1537844103E-02  2.1225869225E-02  3.4763261190E-01
  5.8100000000E+03  1.8669222845E+00  6.8343396497E+00  2.1590675323E-02  2.1277387174E-02  3.4785826553E-01
  5.8150000000E+03  1.8687218267E+00  6.8316665643E+00  2.1643589844E-02  2.1328984001E-02  3.4808377875E-01
  5.8200000000E+03  1.8705215545E+00  6.8289968205E+00  2.1696587724E-02  2.1380659722E-02  3.4830915194E-01
  5.8250000000E+03  1.8723214680E+00  6.8263304113E+00  2.1749669021E-02  2.1432414384E-02  3.4853438550E-01
  5.8300000000E+03  1.8741215668E+00  6.8236673296E+00  2.1802833792E-02  2.1484248032E-02  3.4875947979E-01
  5.8350000000E+03  1.8759218509E+00  6.8210075685E+00  2.1856082096E-02  2.1536160713E-02  3.4898443521E-01
  5.8400000000E+03  1.8777223202E+00  6.8183511209E+00  2.1909413991E-02  2.1588152473E-02  3.4920925214E-01
  5.8450000000E+03  1.8795229744E+00  6.8156979800E+00  2.1962829534E-02  2.1640223359E-02  3.4943393095E-01
  5.8500000000E+03  1.8813238135E+00  6.8130481387E+00  2.2016328782E-02  2.1692373415E-02  3.4965847204E-01
  5.8550000000E+03  1.8831248374E+00  6.8104015902E+00  2.2069911795E-02  2.1744602690E-02  3.4988287577E-01
  5.8600000000E+03  1.8849260458E+00  6.8077583275E+00  2.2123578630E-02  2.1796911227E-02  3.5010714254E-01
  5.8650000000E+03  1.8867271573E+00  6.8051183438E+00  2.2177329344E-02  2.1849299037E-02  3.5033127270E-01
  5.8700000000E+03  1.8885283456E+00  6.8025220818E+00  2.2231163995E-02  2.1901766607E-02  3.5055526665E-01
  5.8750000000E+03  1.8903297176E+00  6.7999362742E+00  2.2285082641E-02  2.1954313658E-02  3.5077912476E-01
  5.8800000000E+03  1.8921312733E+00  6.7973536480E+00  2.2339085340E-02  2.2006940160E-02  3.5100284740E-01
  5.8850000000E+03  1.8939330124E+00  6.7947741966E+00  2.2393172150E-02  2.2059646161E-02  3.5122643494E-01
  5.8900000000E+03  1.8957349348E+00  6.7921979134E+00  2.2447343127E-02  2.2112431705E-02  3.5144988777E-01
  5.8950000000E+03  1.8975370405E+00  6.7896247919E+00  2.2501598331E-02  2.2165296839E-02  3.5167320624E-01
  5.9000000000E+03  1.8993393292E+00  6.7870548254E+00  2.2555937819E-02  2.2218241608E-02  3.5189639074E-01
  5.9050000000E+03  1.9011418009E+00  6.7844880075E+00  2.2610361648E-02  2.2271266059E-02  3.5211944163E-01
  5.9100000000E+03  1.9029444553E+00  6.7819243317E+00  2.2664869876E-02  2.2324370237E-02  3.5234235928E-01
  5.9150000000E+03  1.9047472925E+00  6.7793637913E+00  2.2719462561E-02  2.2377554187E-02  3.5256514406E-01
  5.9200000000E+03  1.9065518685E+00  6.7768063800E+00  2.2774139760E-02  2.2430818172E-02  3.5278779634E-01
  5.9250000000E+03  1.9083568489E+00  6.7742520913E+00  2.2828901531E-02  2.2484162052E-02  3.5301031648E-01
  5.9300000000E+03  1.9101620135E+00  6.7717009188E+00  2.2883747932E-02  2.2537585844E-02  3.5323270486E-01
  5.9350000000E+03  1.9119673620E+00  6.7691528559E+00  2.2938679020E-02  2.2591089594E-02  3.5345496183E-01
  5.9400000000E+03  1.9137728944E+00  6.7666078964E+00  2.2993694854E-02  2.2644673345E-02  3.5367708776E-01
  5.9450000000E+03  1.9155786105E+00  6.7640660338E+00  2.3048795489E-02  2.2698337146E-02  3.5389908301E-01
  5.9500000000E+03  1.9173845101E+00  6.7615272618E+00  2.3103980985E-02  2.2752081039E-02  3.5412094795E-01
  5.9550000000E+03  1.9191905932E+00  6.7589915740E+00  2.3159251399E-02  2.2805905072E-02  3.5434268294E-01
  5.9600000000E+03  1.9209968596E+00  6.7564589640E+00  2.3214606788E-02  2.2859809290E-02  3.5456428834E-01
  5.9650000000E+03  1.9228033091E+00  6.7539733428E+00  2.3270047209E-02  2.2913794243E-02  3.5478576450E-01
  5.9700000000E+03  1.9246099416E+00  6.7514924666E+00  2.3325572721E-02  2.2967859497E-02  3.5500711180E-01
  5.9750000000E+03  1.9264356496E+00  6.7490145775E+00  2.3381183381E-02  2.3022007774E-02  3.5522833058E-01
  5.9800000000E+03  1.9282629829E+00  6.7465396694E+00  2.3436879247E-02  2.3076236645E-02  3.5544942120E-01
  5.9850000000E+03  1.9300905200E+00  6.7440677361E+00  2.3492660375E-02  2.3130545951E-02  3.5567038402E-01
  5.9900000000E+03  1.9319182610E+00  6.7415987717E+00  2.3548526824E-02  2.3184935739E-02  3.5589121940E-01
  5.9950000000E+03  1.9337462056E+00  6.7391327700E+00  2.3604478650E-02  2.3239406053E-02  3.5611192769E-01
  6.0000000000E+03  1.9355743537E+00  6.7366697251E+00  2.3660515912E-02  2.3293956939E-02  3.5633250925E-01
  6.0050000000E+03  1.9374027051E+00  6.7342096310E+00  2.3717150153E-02  2.3349084176E-02  3.5655296443E-01
  6.0100000000E+03  1.9392312597E+00  6.7317524817E+00  2.3773871989E-02  2.3404294003E-02  3.5677329358E-01
  6.0150000000E+03  1.9410600174E+00  6.7292982711E+00  2.3830681479E-02  2.3459586467E-02  3.5699349705E-01
  6.0200000000E+03  1.9428889779E+00  6.7268469934E+00  2.3887578684E-02  2.3514961618E-02  3.5721357520E-01
  6.0250000000E+03  1.9447181412E+00  6.7243986427E+00  2.3944563667E-02  2.3570419502E-02  3.5743352837E-01
  6.0300000000E+03  1.9465515977E+00  6.7219532129E+00  2.4001636486E-02  2.3625960771E-02  3.5765335692E-01
  6.0350000000E+03  1.9483858191E+00  6.7195106982E+00  2.4058797204E-02  2.3681584957E-02  3.5787306119E-01
  6.0400000000E+03  1.9502202477E+00  6.7170710927E+00  2.4116045881E-02  2.3737292025E-02  3.5809264153E-01
  6.0450000000E+03  1.9520548833E+00  6.7146343905E+00  2.4173382578E-02  2.3793082023E-02  3.5831209829E-01
  6.0500000000E+03  1.9538897259E+00  6.7122005859E+00  2.4230807355E-02  2.3848955000E-02  3.5853143182E-01
  6.0550000000E+03  1.9557247752E+00  6.7097696729E+00  2.4288320274E-02  2.3904911003E-02  3.5875064246E-01
  6.0600000000E+03  1.9575600311E+00  6.7073753666E+00  2.4345921395E-02  2.3960950510E-02  3.5896973056E-01
  6.0650000000E+03  1.9593954935E+00  6.7049938696E+00  2.4403610779E-02  2.4017073270E-02  3.5918869645E-01
  6.0700000000E+03  1.9612311622E+00  6.7026151795E+00  2.4461388487E-02  2.4073279206E-02  3.5940754049E-01
  6.0750000000E+03  1.9630670370E+00  6.7002392909E+00  2.4519254579E-02  2.4129568364E-02  3.5962626302E-01
  6.0800000000E+03  1.9649031179E+00  6.6978661981E+00  2.4577209116E-02  2.4185940792E-02  3.5984486441E-01
  6.0850000000E+03  1.9667630042E+00  6.6954958955E+00  2.4635252159E-02  2.4242400123E-02  3.6006334529E-01
  6.0900000000E+03  1.9686318544E+00  6.6931283776E+00  2.4693383769E-02  2.4298944174E-02  3.6028170609E-01
  6.0950000000E+03  1.9705009446E+00  6.6907636387E+00  2.4751604006E-02  2.4355571671E-02  3.6049994715E-01
  6.1000000000E+03  1.9723702745E+00  6.6884016734E+00  2.4809912931E-02  2.4412282661E-02  3.6071806881E-01
  6.1050000000E+03  1.9742398439E+00  6.6860424762E+00  2.4868310604E-02  2.4469077192E-02  3.6093607141E-01
  6.1100000000E+03  1.9761096528E+00  6.6836860415E+00  2.4926797087E-02  2.4525955312E-02  3.6115395531E-01
  6.1150000000E+03  1.9779797009E+00  6.6813323638E+00  2.4985372440E-02  2.4582917068E-02  3.6137172083E-01
  6.1200000000E+03  1.9798499880E+00  6.6789814377E+00  2.5044036723E-02  2.4639962508E-02  3.6158936832E-01
  6.1250000000E+03  1.9817205141E+00  6.6766332577E+00  2.5102789998E-02  2.4697091680E-02  3.6180689812E-01
  6.1300000000E+03  1.9835912789E+00  6.6742878183E+00  2.5161632324E-02  2.4754304630E-02  3.6202431057E-01
  6.1350000000E+03  1.9854622822E+00  6.6719451142E+00  2.5220563763E-02  2.4811601407E-02  3.6224160601E-01
  6.1400000000E+03  1.9873333893E+00  6.6696051399E+00  2.5279584375E-02  2.4868982036E-02  3.6245878477E-01
  6.1450000000E+03  1.9892045861E+00  6.6672678900E+00  2.5338694221E-02  2.4926446563E-02  3.6267584719E-01
  6.1500000000E+03  1.9910760207E+00  6.6649333591E+00  2.5397893361E-02  2.4983995058E-02  3.6289279361E-01
  6.1550000000E+03  1.9929476929E+00  6.6626129344E+00  2.5457181855E-02  2.5041627729E-02  3.6310962436E-01
  6.1600000000E+03  1.9948196025E+00  6.6603256169E+00  2.5516559765E-02  2.5099344897E-02  3.6332633978E-01
  6.1650000000E+03  1.9966917495E+00  6.6580409396E+00  2.5576027151E-02  2.5157146180E-02  3.6354294021E-01
  6.1700000000E+03  1.9985641335E+00  6.6557588972E+00  2.5635584074E-02  2.5215031626E-02  3.6375942596E-01
  6.1750000000E+03  2.0004367546E+00  6.6534794845E+00  2.5695230593E-02  2.5273001282E-02  3.6397579738E-01
  6.1800000000E+03  2.0023096124E+00  6.6512026965E+00  2.5754966770E-02  2.5331055195E-02  3.6419205481E-01
  6.1850000000E+03  2.0041827069E+00  6.6489285280E+00  2.5814792665E-02  2.5389193412E-02  3.6440819855E-01
  6.1900000000E+03  2.0060560379E+00  6.6466569738E+00  2.5874708338E-02  2.5447415981E-02  3.6462422896E-01
  6.1950000000E+03  2.0079295251E+00  6.6443880288E+00  2.5934713850E-02  2.5505722935E-02  3.6484014636E-01
  6.2000000000E+03  2.0098026498E+00  6.6421216880E+00  2.5994809262E-02  2.5564114237E-02  3.6505595108E-01
  6.2050000000E+03  2.0116760098E+00  6.6398579463E+00  2.6054994634E-02  2.5622590032E-02  3.6527164344E-01
  6.2100000000E+03  2.0135496049E+00  6.6375967985E+00  2.6115270026E-02  2.5681150365E-02  3.6548722377E-01
  6.2150000000E+03  2.0154234350E+00  6.6353382396E+00  2.6175635499E-02  2.5739795284E-02  3.6570269240E-01
  6.2200000000E+03  2.0172974999E+00  6.6330822646E+00  2.6236091113E-02  2.5798524836E-02  3.6591804966E-01
  6.2250000000E+03  2.0191717994E+00  6.6308288685E+00  2.6296636929E-02  2.5857339067E-02  3.6613329587E-01
  6.2300000000E+03  2.0210463334E+00  6.6285780462E+00  2.6357273007E-02  2.5916238024E-02  3.6634843136E-01
  6.2350000000E+03  2.0229211017E+00  6.6263297927E+00  2.6417999408E-02  2.5975221755E-02  3.6656345644E-01
  6.2400000000E+03  2.0247961042E+00  6.6240841031E+00  2.6478816191E-02  2.6034290306E-02  3.6677837145E-01
  6.2450000000E+03  2.0266713407E+00  6.6218409724E+00  2.6539723418E-02  2.6093443723E-02  3.6699317670E-01
  6.2500000000E+03  2.0285468111E+00  6.6196003955E+00  2.6600721148E-02  2.6152682053E-02  3.6720787251E-01
  6.2550000000E+03  2.0304222346E+00  6.6173807394E+00  2.6661809442E-02  2.6212005586E-02  3.6742245922E-01
  6.2600000000E+03  2.0322977428E+00  6.6151852117E+00  2.6722988361E-02  2.6271414443E-02  3.6763693713E-01
  6.2650000000E+03  2.0341734840E+00  6.6129921646E+00  2.6784257964E-02  2.6330908358E-02  3.6785130657E-01
  6.2700000000E+03  2.0360494580E+00  6.6108015931E+00  2.6845618312E-02  2.6390487379E-02  3.6806556786E-01
  6.2750000000E+03  2.0379256645E+00  6.6086134926E+00  2.6907069466E-02  2.6450151551E-02  3.6827972132E-01
  6.2800000000E+03  2.0398021035E+00  6.6064278582E+00  2.6968611485E-02  2.6509900922E-02  3.6849376725E-01
  6.2850000000E+03  2.0416787748E+00  6.6042446853E+00  2.7030244431E-02  2.6569735537E-02  3.6870770599E-01
  6.2900000000E+03  2.0435556783E+00  6.6020639692E+00  2.7091968362E-02  2.6629655443E-02  3.6892153785E-01
  6.2950000000E+03  2.0454328137E+00  6.5998857050E+00  2.7153783340E-02  2.6689660687E-02  3.6913526314E-01
  6.3000000000E+03  2.0473101810E+00  6.5977098881E+00  2.7215689425E-02  2.6749751315E-02  3.6934888217E-01
  6.3050000000E+03  2.0491877800E+00  6.5955365138E+00  2.7277686677E-02  2.6809927373E-02  3.6956239528E-01
  6.3100000000E+03  2.0510655221E+00  6.5933655775E+00  2.7339775156E-02  2.6870188892E-02  3.6977580275E-01
  6.3150000000E+03  2.0529425564E+00  6.5911970745E+00  2.7401954923E-02  2.6930535773E-02  3.6998910492E-01
  6.3200000000E+03  2.0548198209E+00  6.5890310000E+00  2.7464226037E-02  2.6990968222E-02  3.7020230209E-01
  6.3250000000E+03  2.0566973153E+00  6.5868673496E+00  2.7526588560E-02  2.7051486285E-02  3.7041539458E-01
  6.3300000000E+03  2.0585750396E+00  6.5847061185E+00  2.7589042550E-02  2.7112090008E-02  3.7062838269E-01
  6.3350000000E+03  2.0604529936E+00  6.5825473022E+00  2.7651588069E-02  2.7172779439E-02  3.7084126675E-01
  6.3400000000E+03  2.0623311771E+00  6.5803908960E+00  2.7714225177E-02  2.7233554621E-02  3.7105404705E-01
  6.3450000000E+03  2.0642095900E+00  6.5782368954E+00  2.7776953933E-02  2.7294415603E-02  3.7126672390E-01
  6.3500000000E+03  2.0660882321E+00  6.5760852957E+00  2.7839774399E-02  2.7355362430E-02  3.7147929763E-01
