#[MATERIAL DEFINITION FOR MC-GPU: interaction mean free path and sampling data from PENELOPE 2018]
#[MATERIAL NAME]
# gastro_content                                                
#[NOMINAL DENSITY (g/cm^3)]
#   1.04000000
#[NUMBER OF DATA VALUES]
#  23002
#[MEAN FREE PATHS (cm) (ie, average distance between interactions)]
#[Energy (eV)     | Rayleigh        | Compton         | Photoelectric   | TOTAL (+pair prod) (cm) | Rayleigh: max cumul prob F^2]
  5.0000000000E+03  1.8071320111E+00  8.2555421121E+00  2.4630221649E-02  2.4227728082E-02  3.4447836469E-01
  5.0050000000E+03  1.8092560373E+00  8.2503337117E+00  2.4704251809E-02  2.4299693409E-02  3.4473836093E-01
  5.0100000000E+03  1.8113804354E+00  8.2451337928E+00  2.4778429842E-02  2.4371797943E-02  3.4499806975E-01
  5.0150000000E+03  1.8135066144E+00  8.2399423334E+00  2.4852755894E-02  2.4444042061E-02  3.4525749180E-01
  5.0200000000E+03  1.8156340091E+00  8.2347593112E+00  2.4927230111E-02  2.4516425777E-02  3.4551662770E-01
  5.0250000000E+03  1.8177617779E+00  8.2295847041E+00  2.5001852640E-02  2.4588949058E-02  3.4577547810E-01
  5.0300000000E+03  1.8198899204E+00  8.2244184901E+00  2.5076623627E-02  2.4661612021E-02  3.4603404362E-01
  5.0350000000E+03  1.8220184362E+00  8.2192606473E+00  2.5151543216E-02  2.4734414783E-02  3.4629232490E-01
  5.0400000000E+03  1.8241473252E+00  8.2141111538E+00  2.5226611556E-02  2.4807357461E-02  3.4655032256E-01
  5.0450000000E+03  1.8262765870E+00  8.2089699879E+00  2.5301828791E-02  2.4880440173E-02  3.4680803722E-01
  5.0500000000E+03  1.8284062213E+00  8.2038371277E+00  2.5377195068E-02  2.4953663035E-02  3.4706546952E-01
  5.0550000000E+03  1.8305362278E+00  8.1987125518E+00  2.5452710533E-02  2.5027026165E-02  3.4732262007E-01
  5.0600000000E+03  1.8326669243E+00  8.1935962385E+00  2.5528375331E-02  2.5100529739E-02  3.4757948949E-01
  5.0650000000E+03  1.8347985843E+00  8.1884881665E+00  2.5604189610E-02  2.5174173926E-02  3.4783607839E-01
  5.0700000000E+03  1.8369306167E+00  8.1833883142E+00  2.5680153514E-02  2.5247958732E-02  3.4809238740E-01
  5.0750000000E+03  1.8390630214E+00  8.1782966605E+00  2.5756267190E-02  2.5321884274E-02  3.4834841713E-01
  5.0800000000E+03  1.8411957979E+00  8.1732131840E+00  2.5832530785E-02  2.5395950669E-02  3.4860416819E-01
  5.0850000000E+03  1.8433289460E+00  8.1682260396E+00  2.5908944443E-02  2.5470158890E-02  3.4885964118E-01
  5.0900000000E+03  1.8454624654E+00  8.1632553847E+00  2.5985508312E-02  2.5544508291E-02  3.4911483671E-01
  5.0950000000E+03  1.8475963558E+00  8.1582926306E+00  2.6062222536E-02  2.5618998905E-02  3.4936975540E-01
  5.1000000000E+03  1.8497306169E+00  8.1533377568E+00  2.6139087263E-02  2.5693630848E-02  3.4962439783E-01
  5.1050000000E+03  1.8518652484E+00  8.1483907433E+00  2.6216102638E-02  2.5768404238E-02  3.4987876462E-01
  5.1100000000E+03  1.8540017785E+00  8.1434515699E+00  2.6293268807E-02  2.5843319487E-02  3.5013285636E-01
  5.1150000000E+03  1.8561386957E+00  8.1385202165E+00  2.6370585916E-02  2.5918376419E-02  3.5038667365E-01
  5.1200000000E+03  1.8582759846E+00  8.1335966630E+00  2.6448054111E-02  2.5993575149E-02  3.5064021708E-01
  5.1250000000E+03  1.8604136447E+00  8.1286808896E+00  2.6525673538E-02  2.6068915791E-02  3.5089348724E-01
  5.1300000000E+03  1.8625516757E+00  8.1237728764E+00  2.6603444344E-02  2.6144398463E-02  3.5114648474E-01
  5.1350000000E+03  1.8646900773E+00  8.1188726036E+00  2.6681366673E-02  2.6220023279E-02  3.5139921015E-01
  5.1400000000E+03  1.8668288494E+00  8.1139800514E+00  2.6759440673E-02  2.6295790356E-02  3.5165166406E-01
  5.1450000000E+03  1.8689679915E+00  8.1090952003E+00  2.6837666488E-02  2.6371699809E-02  3.5190384706E-01
  5.1500000000E+03  1.8711075033E+00  8.1042180305E+00  2.6916044266E-02  2.6447751753E-02  3.5215575974E-01
  5.1550000000E+03  1.8732479580E+00  8.0993485227E+00  2.6994574152E-02  2.6523946420E-02  3.5240740267E-01
  5.1600000000E+03  1.8753892674E+00  8.0944866573E+00  2.7073256291E-02  2.6600283909E-02  3.5265877647E-01
  5.1650000000E+03  1.8775309471E+00  8.0896841748E+00  2.7152090831E-02  2.6676764800E-02  3.5290988194E-01
  5.1700000000E+03  1.8796729967E+00  8.0849308293E+00  2.7231077916E-02  2.6753389110E-02  3.5316071979E-01
  5.1750000000E+03  1.8818154160E+00  8.0801848675E+00  2.7310217693E-02  2.6830156502E-02  3.5341129070E-01
  5.1800000000E+03  1.8839582048E+00  8.0754462709E+00  2.7389510308E-02  2.6907067092E-02  3.5366159531E-01
  5.1850000000E+03  1.8861013626E+00  8.0707150209E+00  2.7468955907E-02  2.6984120995E-02  3.5391163431E-01
  5.1900000000E+03  1.8882448892E+00  8.0659910991E+00  2.7548554635E-02  2.7061318327E-02  3.5416140836E-01
  5.1950000000E+03  1.8903887843E+00  8.0612744870E+00  2.7628306639E-02  2.7138659201E-02  3.5441091812E-01
  5.2000000000E+03  1.8925330539E+00  8.0565651665E+00  2.7708212064E-02  2.7216143735E-02  3.5466016424E-01
  5.2050000000E+03  1.8946784748E+00  8.0518631191E+00  2.7788271057E-02  2.7293772205E-02  3.5490914738E-01
  5.2100000000E+03  1.8968242643E+00  8.0471683268E+00  2.7868483763E-02  2.7371544564E-02  3.5515786820E-01
  5.2150000000E+03  1.8989704221E+00  8.0424807712E+00  2.7948850329E-02  2.7449460927E-02  3.5540632734E-01
  5.2200000000E+03  1.9011169481E+00  8.0378004345E+00  2.8029370899E-02  2.7527521409E-02  3.5565452546E-01
  5.2250000000E+03  1.9032638418E+00  8.0331272985E+00  2.8110045621E-02  2.7605726124E-02  3.5590246321E-01
  5.2300000000E+03  1.9054111031E+00  8.0284613453E+00  2.8190874639E-02  2.7684075186E-02  3.5615014122E-01
  5.2350000000E+03  1.9075587315E+00  8.0238025570E+00  2.8271858101E-02  2.7762568711E-02  3.5639756013E-01
  5.2400000000E+03  1.9097067269E+00  8.0191509158E+00  2.8352996151E-02  2.7841206812E-02  3.5664472060E-01
  5.2450000000E+03  1.9118550890E+00  8.0145064040E+00  2.8434291842E-02  2.7919992406E-02  3.5689162325E-01
  5.2500000000E+03  1.9140054007E+00  8.0099531642E+00  2.8515754693E-02  2.7998936011E-02  3.5713826871E-01
  5.2550000000E+03  1.9161586008E+00  8.0054128886E+00  2.8597372655E-02  2.8078025243E-02  3.5738465763E-01
  5.2600000000E+03  1.9183121720E+00  8.0008795007E+00  2.8679145873E-02  2.8157259606E-02  3.5763079063E-01
  5.2650000000E+03  1.9204661140E+00  7.9963529837E+00  2.8761074493E-02  2.8236639216E-02  3.5787666834E-01
  5.2700000000E+03  1.9226204266E+00  7.9918333205E+00  2.8843158661E-02  2.8316164186E-02  3.5812229138E-01
  5.2750000000E+03  1.9247751093E+00  7.9873204944E+00  2.8925398524E-02  2.8395834630E-02  3.5836766038E-01
  5.2800000000E+03  1.9269301620E+00  7.9828144885E+00  2.9007794228E-02  2.8475650663E-02  3.5861277595E-01
  5.2850000000E+03  1.9290855843E+00  7.9783152861E+00  2.9090345918E-02  2.8555612398E-02  3.5885763872E-01
  5.2900000000E+03  1.9312413760E+00  7.9738228704E+00  2.9173053741E-02  2.8635719949E-02  3.5910224930E-01
  5.2950000000E+03  1.9333975368E+00  7.9693372249E+00  2.9255917843E-02  2.8715973430E-02  3.5934660831E-01
  5.3000000000E+03  1.9355542849E+00  7.9648583329E+00  2.9338938369E-02  2.8796373002E-02  3.5959071636E-01
  5.3050000000E+03  1.9377115076E+00  7.9603861780E+00  2.9422115467E-02  2.8876918757E-02  3.5983457406E-01
  5.3100000000E+03  1.9398690989E+00  7.9559207436E+00  2.9505449281E-02  2.8957610782E-02  3.6007818201E-01
  5.3150000000E+03  1.9420270586E+00  7.9514620133E+00  2.9588939959E-02  2.9038449193E-02  3.6032154082E-01
  5.3200000000E+03  1.9441853864E+00  7.9470099709E+00  2.9672587646E-02  2.9119434101E-02  3.6056465110E-01
  5.3250000000E+03  1.9463440819E+00  7.9425645999E+00  2.9756392487E-02  2.9200565622E-02  3.6080751344E-01
  5.3300000000E+03  1.9485031449E+00  7.9381297523E+00  2.9840354630E-02  2.9281843920E-02  3.6105012844E-01
  5.3350000000E+03  1.9506625752E+00  7.9337847958E+00  2.9924474220E-02  2.9363270197E-02  3.6129249671E-01
  5.3400000000E+03  1.9528223724E+00  7.9294462844E+00  3.0008751403E-02  2.9444843439E-02  3.6153461882E-01
  5.3450000000E+03  1.9549825363E+00  7.9251142025E+00  3.0093186325E-02  2.9526563759E-02  3.6177649539E-01
  5.3500000000E+03  1.9571426996E+00  7.9207885347E+00  3.0177779133E-02  2.9608431185E-02  3.6201812699E-01
  5.3550000000E+03  1.9593031746E+00  7.9164692653E+00  3.0262529972E-02  2.9690445902E-02  3.6225951422E-01
  5.3600000000E+03  1.9614640150E+00  7.9121563791E+00  3.0347438988E-02  2.9772608035E-02  3.6250065766E-01
  5.3650000000E+03  1.9636252203E+00  7.9078498605E+00  3.0432506328E-02  2.9854917697E-02  3.6274155789E-01
  5.3700000000E+03  1.9657867903E+00  7.9035496943E+00  3.0517732136E-02  2.9937374999E-02  3.6298221550E-01
  5.3750000000E+03  1.9679487249E+00  7.8992558653E+00  3.0603116560E-02  3.0019980056E-02  3.6322263107E-01
  5.3800000000E+03  1.9701110235E+00  7.8949683581E+00  3.0688659746E-02  3.0102732979E-02  3.6346280518E-01
  5.3850000000E+03  1.9722736861E+00  7.8906871577E+00  3.0774361838E-02  3.0185633882E-02  3.6370273839E-01
  5.3900000000E+03  1.9744367123E+00  7.8864122489E+00  3.0860222984E-02  3.0268682875E-02  3.6394243129E-01
  5.3950000000E+03  1.9766001018E+00  7.8821436166E+00  3.0946243329E-02  3.0351880072E-02  3.6418188445E-01
  5.4000000000E+03  1.9787649983E+00  7.8778812458E+00  3.1032423019E-02  3.0435225856E-02  3.6442109843E-01
  5.4050000000E+03  1.9809302847E+00  7.8736251216E+00  3.1118762201E-02  3.0518720076E-02  3.6466007381E-01
  5.4100000000E+03  1.9830959352E+00  7.8693752290E+00  3.1205261019E-02  3.0602362838E-02  3.6489881115E-01
  5.4150000000E+03  1.9852619493E+00  7.8651315532E+00  3.1291919621E-02  3.0686154254E-02  3.6513731102E-01
  5.4200000000E+03  1.9874283269E+00  7.8609684807E+00  3.1378738152E-02  3.0770095576E-02  3.6537557397E-01
  5.4250000000E+03  1.9895950677E+00  7.8568212087E+00  3.1465716758E-02  3.0854185940E-02  3.6561360056E-01
  5.4300000000E+03  1.9917621713E+00  7.8526799423E+00  3.1552855584E-02  3.0938425307E-02  3.6585139137E-01
  5.4350000000E+03  1.9939296376E+00  7.8485446673E+00  3.1640154778E-02  3.1022813791E-02  3.6608894693E-01
  5.4400000000E+03  1.9960974662E+00  7.8444153695E+00  3.1727614485E-02  3.1107351502E-02  3.6632626780E-01
  5.4450000000E+03  1.9982656569E+00  7.8402920348E+00  3.1815234850E-02  3.1192038552E-02  3.6656335455E-01
  5.4500000000E+03  2.0005092811E+00  7.8361746491E+00  3.1903016021E-02  3.1276893404E-02  3.6680020771E-01
  5.4550000000E+03  2.0027538170E+00  7.8320631985E+00  3.1990958142E-02  3.1361898071E-02  3.6703682784E-01
  5.4600000000E+03  2.0049988114E+00  7.8279576688E+00  3.2079061359E-02  3.1447052556E-02  3.6727321548E-01
  5.4650000000E+03  2.0072442639E+00  7.8238580461E+00  3.2167325819E-02  3.1532356969E-02  3.6750937118E-01
  5.4700000000E+03  2.0094901743E+00  7.8197643167E+00  3.2255751668E-02  3.1617811423E-02  3.6774529548E-01
  5.4750000000E+03  2.0117365422E+00  7.8156764666E+00  3.2344339051E-02  3.1703416030E-02  3.6798098892E-01
  5.4800000000E+03  2.0139833673E+00  7.8115944820E+00  3.2433088114E-02  3.1789170901E-02  3.6821645204E-01
  5.4850000000E+03  2.0162306493E+00  7.8075183492E+00  3.2521999004E-02  3.1875076148E-02  3.6845168538E-01
  5.4900000000E+03  2.0184783878E+00  7.8034480544E+00  3.2611071865E-02  3.1961131883E-02  3.6868668947E-01
  5.4950000000E+03  2.0207265825E+00  7.7993835841E+00  3.2700306845E-02  3.2047338216E-02  3.6892146486E-01
  5.5000000000E+03  2.0229788042E+00  7.7953249245E+00  3.2789704089E-02  3.2133696160E-02  3.6915601206E-01
  5.5050000000E+03  2.0252318053E+00  7.7913083909E+00  3.2879736750E-02  3.2220659869E-02  3.6939033161E-01
  5.5100000000E+03  2.0274852669E+00  7.7873424302E+00  3.2969934151E-02  3.2307777323E-02  3.6962442404E-01
  5.5150000000E+03  2.0297391884E+00  7.7833820829E+00  3.3060296441E-02  3.2395047873E-02  3.6985828989E-01
  5.5200000000E+03  2.0319935697E+00  7.7794273358E+00  3.3150823771E-02  3.2482471633E-02  3.7009192986E-01
  5.5250000000E+03  2.0342484104E+00  7.7754781759E+00  3.3241516292E-02  3.2570048718E-02  3.7032534463E-01
  5.5300000000E+03  2.0365037102E+00  7.7715345904E+00  3.3332374154E-02  3.2657779243E-02  3.7055853482E-01
  5.5350000000E+03  2.0387594687E+00  7.7675965662E+00  3.3423397506E-02  3.2745663323E-02  3.7079150104E-01
  5.5400000000E+03  2.0410156856E+00  7.7636640907E+00  3.3514586500E-02  3.2833701071E-02  3.7102424390E-01
  5.5450000000E+03  2.0432723607E+00  7.7597371509E+00  3.3605941286E-02  3.2921892603E-02  3.7125676403E-01
  5.5500000000E+03  2.0455297476E+00  7.7558157341E+00  3.3697462014E-02  3.3010238098E-02  3.7148906202E-01
  5.5550000000E+03  2.0477876780E+00  7.7518998275E+00  3.3789148834E-02  3.3098737628E-02  3.7172113850E-01
  5.5600000000E+03  2.0500460659E+00  7.7479894185E+00  3.3881001897E-02  3.3187391285E-02  3.7195299405E-01
  5.5650000000E+03  2.0523049111E+00  7.7440844944E+00  3.3973021353E-02  3.3276199183E-02  3.7218462930E-01
  5.5700000000E+03  2.0545642133E+00  7.7401850426E+00  3.4065207353E-02  3.3365161436E-02  3.7241604483E-01
  5.5750000000E+03  2.0568239721E+00  7.7362910505E+00  3.4157560047E-02  3.3454278157E-02  3.7264724125E-01
  5.5800000000E+03  2.0590841873E+00  7.7324025056E+00  3.4250079584E-02  3.3543549461E-02  3.7287821916E-01
  5.5850000000E+03  2.0613448584E+00  7.7285193954E+00  3.4342766116E-02  3.3632975462E-02  3.7310897914E-01
  5.5900000000E+03  2.0636059853E+00  7.7246417075E+00  3.4435619793E-02  3.3722556272E-02  3.7333952179E-01
  5.5950000000E+03  2.0658675675E+00  7.7208263023E+00  3.4528640765E-02  3.3812293097E-02  3.7356984771E-01
  5.6000000000E+03  2.0681297243E+00  7.7170372217E+00  3.4621829183E-02  3.3902185409E-02  3.7379995747E-01
  5.6050000000E+03  2.0703924634E+00  7.7132533798E+00  3.4715185196E-02  3.3992232923E-02  3.7402985166E-01
  5.6100000000E+03  2.0726556573E+00  7.7094747646E+00  3.4808708955E-02  3.4082435717E-02  3.7425953088E-01
  5.6150000000E+03  2.0749193057E+00  7.7057013643E+00  3.4902400611E-02  3.4172793905E-02  3.7448899569E-01
  5.6200000000E+03  2.0771834081E+00  7.7019331670E+00  3.4996260313E-02  3.4263307601E-02  3.7471824668E-01
  5.6250000000E+03  2.0794479644E+00  7.6981701610E+00  3.5090288213E-02  3.4353976918E-02  3.7494728443E-01
  5.6300000000E+03  2.0817129741E+00  7.6944123344E+00  3.5184484459E-02  3.4444801968E-02  3.7517610950E-01
  5.6350000000E+03  2.0839784371E+00  7.6906596756E+00  3.5278849204E-02  3.4535782865E-02  3.7540472248E-01
  5.6400000000E+03  2.0862443529E+00  7.6869121729E+00  3.5373382596E-02  3.4626919722E-02  3.7563312393E-01
  5.6450000000E+03  2.0885107213E+00  7.6831698147E+00  3.5468084787E-02  3.4718212651E-02  3.7586131443E-01
  5.6500000000E+03  2.0907776713E+00  7.6794325893E+00  3.5562955926E-02  3.4809661802E-02  3.7608929453E-01
  5.6550000000E+03  2.0930459714E+00  7.6757004851E+00  3.5657996164E-02  3.4901267501E-02  3.7631706481E-01
  5.6600000000E+03  2.0953147245E+00  7.6719734906E+00  3.5753205652E-02  3.4993029613E-02  3.7654462583E-01
  5.6650000000E+03  2.0975839302E+00  7.6682515944E+00  3.5848584538E-02  3.5084948251E-02  3.7677197814E-01
  5.6700000000E+03  2.0998535883E+00  7.6645347849E+00  3.5944132975E-02  3.5177023526E-02  3.7699912230E-01
  5.6750000000E+03  2.1021236984E+00  7.6608230508E+00  3.6039851112E-02  3.5269255552E-02  3.7722605888E-01
  5.6800000000E+03  2.1043942602E+00  7.6571163805E+00  3.6135739099E-02  3.5361644441E-02  3.7745278843E-01
  5.6850000000E+03  2.1066652734E+00  7.6534690683E+00  3.6231797087E-02  3.5454191470E-02  3.7767931149E-01
  5.6900000000E+03  2.1089367377E+00  7.6498470515E+00  3.6328025226E-02  3.5546896038E-02  3.7790562863E-01
  5.6950000000E+03  2.1112086528E+00  7.6462299280E+00  3.6424423666E-02  3.5639757821E-02  3.7813174038E-01
  5.7000000000E+03  2.1134810183E+00  7.6426176868E+00  3.6520992557E-02  3.5732776933E-02  3.7835764729E-01
  5.7050000000E+03  2.1157538329E+00  7.6390103171E+00  3.6617732051E-02  3.5825953485E-02  3.7858334992E-01
  5.7100000000E+03  2.1180270967E+00  7.6354078081E+00  3.6714642296E-02  3.5919287589E-02  3.7880884880E-01
  5.7150000000E+03  2.1203008101E+00  7.6318101490E+00  3.6811723444E-02  3.6012779356E-02  3.7903414447E-01
  5.7200000000E+03  2.1225749728E+00  7.6282173290E+00  3.6908975645E-02  3.6106428900E-02  3.7925923747E-01
  5.7250000000E+03  2.1248495844E+00  7.6246293373E+00  3.7006399049E-02  3.6200236330E-02  3.7948412834E-01
  5.7300000000E+03  2.1271246447E+00  7.6210461634E+00  3.7103993806E-02  3.6294201760E-02  3.7970881762E-01
  5.7350000000E+03  2.1294001533E+00  7.6174677964E+00  3.7201760066E-02  3.6388325299E-02  3.7993330583E-01
  5.7400000000E+03  2.1316761100E+00  7.6138942259E+00  3.7299697980E-02  3.6482607061E-02  3.8015759351E-01
  5.7450000000E+03  2.1339525144E+00  7.6103254411E+00  3.7397807698E-02  3.6577047156E-02  3.8038168119E-01
  5.7500000000E+03  2.1362293663E+00  7.6067614315E+00  3.7496089371E-02  3.6671645695E-02  3.8060556940E-01
  5.7550000000E+03  2.1385067381E+00  7.6032021867E+00  3.7594543148E-02  3.6766402811E-02  3.8082925865E-01
  5.7600000000E+03  2.1407850917E+00  7.5996476960E+00  3.7693169181E-02  3.6861318752E-02  3.8105274949E-01
  5.7650000000E+03  2.1430638925E+00  7.5960979490E+00  3.7791967618E-02  3.6956393472E-02  3.8127604242E-01
  5.7700000000E+03  2.1453431404E+00  7.5925529353E+00  3.7890938610E-02  3.7051627082E-02  3.8149913796E-01
  5.7750000000E+03  2.1476228349E+00  7.5890437605E+00  3.7990082309E-02  3.7147020437E-02  3.8172203665E-01
  5.7800000000E+03  2.1499029759E+00  7.5855796626E+00  3.8089398863E-02  3.7242573887E-02  3.8194473899E-01
  5.7850000000E+03  2.1521835630E+00  7.5821201392E+00  3.8188888424E-02  3.7338286575E-02  3.8216724550E-01
  5.7900000000E+03  2.1544645959E+00  7.5786651803E+00  3.8288551140E-02  3.7434158615E-02  3.8238955669E-01
  5.7950000000E+03  2.1567460743E+00  7.5752147760E+00  3.8388387164E-02  3.7530190115E-02  3.8261167307E-01
  5.8000000000E+03  2.1590279979E+00  7.5717689163E+00  3.8488396645E-02  3.7626381187E-02  3.8283359516E-01
  5.8050000000E+03  2.1613103664E+00  7.5683275914E+00  3.8588579732E-02  3.7722731940E-02  3.8305532346E-01
  5.8100000000E+03  2.1635935365E+00  7.5648907913E+00  3.8688936578E-02  3.7819242595E-02  3.8327685847E-01
  5.8150000000E+03  2.1658775508E+00  7.5614585062E+00  3.8789467330E-02  3.7915913276E-02  3.8349820071E-01
  5.8200000000E+03  2.1681620100E+00  7.5580307264E+00  3.8890172141E-02  3.8012743971E-02  3.8371935067E-01
  5.8250000000E+03  2.1704469139E+00  7.5546074421E+00  3.8991051160E-02  3.8109734790E-02  3.8394030886E-01
  5.8300000000E+03  2.1727322622E+00  7.5511886434E+00  3.9092104538E-02  3.8206885844E-02  3.8416107577E-01
  5.8350000000E+03  2.1750180546E+00  7.5477743207E+00  3.9193332424E-02  3.8304197241E-02  3.8438165191E-01
  5.8400000000E+03  2.1773042908E+00  7.5443644644E+00  3.9294734969E-02  3.8401669093E-02  3.8460203776E-01
  5.8450000000E+03  2.1795909705E+00  7.5409590646E+00  3.9396312323E-02  3.8499301509E-02  3.8482223383E-01
  5.8500000000E+03  2.1818780934E+00  7.5375581119E+00  3.9498064636E-02  3.8597094598E-02  3.8504224059E-01
  5.8550000000E+03  2.1841656592E+00  7.5341615966E+00  3.9599992059E-02  3.8695048470E-02  3.8526205844E-01
  5.8600000000E+03  2.1864536677E+00  7.5307695092E+00  3.9702094742E-02  3.8793163235E-02  3.8548168788E-01
  5.8650000000E+03  2.1887430268E+00  7.5273818400E+00  3.9804372835E-02  3.8891439288E-02  3.8570112947E-01
  5.8700000000E+03  2.1910331755E+00  7.5240566904E+00  3.9906826489E-02  3.8989878124E-02  3.8592038375E-01
  5.8750000000E+03  2.1933237676E+00  7.5207462604E+00  4.0009455852E-02  3.9088478482E-02  3.8613945126E-01
  5.8800000000E+03  2.1956148026E+00  7.5174401013E+00  4.0112261077E-02  3.9187240190E-02  3.8635833254E-01
  5.8850000000E+03  2.1979062804E+00  7.5141382039E+00  4.0215242312E-02  3.9286163358E-02  3.8657702812E-01
  5.8900000000E+03  2.2001982006E+00  7.5108405591E+00  4.0318399709E-02  3.9385248096E-02  3.8679553854E-01
  5.8950000000E+03  2.2024905629E+00  7.5075471578E+00  4.0421733417E-02  3.9484494512E-02  3.8701386433E-01
  5.9000000000E+03  2.2047833671E+00  7.5042579910E+00  4.0525243587E-02  3.9583902715E-02  3.8723200603E-01
  5.9050000000E+03  2.2070766128E+00  7.5009730497E+00  4.0628930368E-02  3.9683472815E-02  3.8744996416E-01
  5.9100000000E+03  2.2093702998E+00  7.4976923248E+00  4.0732793912E-02  3.9783204919E-02  3.8766773925E-01
  5.9150000000E+03  2.2116644278E+00  7.4944158074E+00  4.0836834367E-02  3.9883099136E-02  3.8788533183E-01
  5.9200000000E+03  2.2139601676E+00  7.4911434885E+00  4.0941051886E-02  3.9983155958E-02  3.8810274242E-01
  5.9250000000E+03  2.2162565151E+00  7.4878753593E+00  4.1045446616E-02  4.0083375166E-02  3.8831997154E-01
  5.9300000000E+03  2.2185533043E+00  7.4846114108E+00  4.1150018710E-02  4.0183756817E-02  3.8853701971E-01
  5.9350000000E+03  2.2208505351E+00  7.4813516341E+00  4.1254768317E-02  4.0284301017E-02  3.8875388745E-01
  5.9400000000E+03  2.2231482070E+00  7.4780960204E+00  4.1359695587E-02  4.0385007876E-02  3.8897057528E-01
  5.9450000000E+03  2.2254463198E+00  7.4748445609E+00  4.1464800670E-02  4.0485877502E-02  3.8918708371E-01
  5.9500000000E+03  2.2277448732E+00  7.4715972469E+00  4.1570083718E-02  4.0586910002E-02  3.8940341326E-01
  5.9550000000E+03  2.2300438670E+00  7.4683540695E+00  4.1675544879E-02  4.0688105484E-02  3.8961956443E-01
  5.9600000000E+03  2.2323433008E+00  7.4651150200E+00  4.1781184304E-02  4.0789464057E-02  3.8983553773E-01
  5.9650000000E+03  2.2346431743E+00  7.4619432152E+00  4.1887002143E-02  4.0890987723E-02  3.9005133367E-01
  5.9700000000E+03  2.2369434873E+00  7.4587779280E+00  4.1992998547E-02  4.0992674790E-02  3.9026695277E-01
  5.9750000000E+03  2.2392445094E+00  7.4556166316E+00  4.2099173665E-02  4.1094525380E-02  3.9048239551E-01
  5.9800000000E+03  2.2415459911E+00  7.4524593178E+00  4.2205527648E-02  4.1196539519E-02  3.9069766241E-01
  5.9850000000E+03  2.2438479117E+00  7.4493059782E+00  4.2312060646E-02  4.1298717307E-02  3.9091275396E-01
  5.9900000000E+03  2.2461502711E+00  7.4461566044E+00  4.2418772809E-02  4.1401058851E-02  3.9112767066E-01
  5.9950000000E+03  2.2484530688E+00  7.4430111882E+00  4.2525664288E-02  4.1503564259E-02  3.9134241302E-01
  6.0000000000E+03  2.2507563047E+00  7.4398697213E+00  4.2632735232E-02  4.1606233638E-02  3.9155698152E-01
  6.0050000000E+03  2.2530599784E+00  7.4367321955E+00  4.2740759488E-02  4.1709803916E-02  3.9177137666E-01
  6.0100000000E+03  2.2553640897E+00  7.4335986025E+00  4.2848966804E-02  4.1813541386E-02  3.9198559893E-01
  6.0150000000E+03  2.2576686382E+00  7.4304689341E+00  4.2957357338E-02  4.1917446162E-02  3.9219964883E-01
  6.0200000000E+03  2.2599736237E+00  7.4273431822E+00  4.3065931247E-02  4.2021518354E-02  3.9241352683E-01
  6.0250000000E+03  2.2622790460E+00  7.4242213387E+00  4.3174688686E-02  4.2125758074E-02  3.9262723343E-01
  6.0300000000E+03  2.2645924668E+00  7.4211033953E+00  4.3283629812E-02  4.2230168064E-02  3.9284076912E-01
  6.0350000000E+03  2.2669073648E+00  7.4179893440E+00  4.3392754782E-02  4.2334746184E-02  3.9305413437E-01
  6.0400000000E+03  2.2692227090E+00  7.4148791768E+00  4.3502063752E-02  4.2439492188E-02  3.9326732967E-01
  6.0450000000E+03  2.2715384992E+00  7.4117728856E+00  4.3611556878E-02  4.2544406187E-02  3.9348035550E-01
  6.0500000000E+03  2.2738547351E+00  7.4086704622E+00  4.3721234317E-02  4.2649488293E-02  3.9369321234E-01
  6.0550000000E+03  2.2761714165E+00  7.4055718988E+00  4.3831096225E-02  4.2754738617E-02  3.9390590067E-01
  6.0600000000E+03  2.2784885430E+00  7.4025256494E+00  4.3941142758E-02  4.2860158896E-02  3.9411842095E-01
  6.0650000000E+03  2.2808061144E+00  7.3994975074E+00  4.4051374074E-02  4.2965748114E-02  3.9433077368E-01
  6.0700000000E+03  2.2831241303E+00  7.3964730980E+00  4.4161790329E-02  4.3071505904E-02  3.9454295931E-01
  6.0750000000E+03  2.2854425906E+00  7.3934524136E+00  4.4272391678E-02  4.3177432377E-02  3.9475497832E-01
  6.0800000000E+03  2.2877614949E+00  7.3904354463E+00  4.4383178279E-02  4.3283527645E-02  3.9496683119E-01
  6.0850000000E+03  2.2901229150E+00  7.3874221887E+00  4.4494150288E-02  4.3389806921E-02  3.9517851837E-01
  6.0900000000E+03  2.2925004007E+00  7.3844126332E+00  4.4605307861E-02  4.3496260922E-02  3.9539004033E-01
  6.0950000000E+03  2.2948784004E+00  7.3814067720E+00  4.4716651155E-02  4.3602884194E-02  3.9560139754E-01
  6.1000000000E+03  2.2972569138E+00  7.3784045978E+00  4.4828180327E-02  4.3709676847E-02  3.9581259047E-01
  6.1050000000E+03  2.2996359405E+00  7.3754061028E+00  4.4939895531E-02  4.3816638994E-02  3.9602361957E-01
  6.1100000000E+03  2.3020154803E+00  7.3724112797E+00  4.5051796927E-02  4.3923770743E-02  3.9623448531E-01
  6.1150000000E+03  2.3043955329E+00  7.3694201209E+00  4.5163884668E-02  4.4031072208E-02  3.9644518814E-01
  6.1200000000E+03  2.3067760979E+00  7.3664326190E+00  4.5276158913E-02  4.4138543497E-02  3.9665572852E-01
  6.1250000000E+03  2.3091571750E+00  7.3634487665E+00  4.5388619818E-02  4.4246184722E-02  3.9686610690E-01
  6.1300000000E+03  2.3115387639E+00  7.3604685559E+00  4.5501267538E-02  4.4353995994E-02  3.9707632375E-01
  6.1350000000E+03  2.3139208643E+00  7.3574919799E+00  4.5614102231E-02  4.4461977422E-02  3.9728637952E-01
  6.1400000000E+03  2.3163036459E+00  7.3545190311E+00  4.5727124053E-02  4.4570129181E-02  3.9749627465E-01
  6.1450000000E+03  2.3186871256E+00  7.3515497020E+00  4.5840333160E-02  4.4678451387E-02  3.9770600960E-01
  6.1500000000E+03  2.3210711165E+00  7.3485839854E+00  4.5953729709E-02  4.4786944082E-02  3.9791558481E-01
  6.1550000000E+03  2.3234556180E+00  7.3456382348E+00  4.6067313856E-02  4.4895607987E-02  3.9812500074E-01
  6.1600000000E+03  2.3258406300E+00  7.3427397337E+00  4.6181085759E-02  4.5004444247E-02  3.9833425783E-01
  6.1650000000E+03  2.3282261521E+00  7.3398447267E+00  4.6295045572E-02  4.5113451348E-02  3.9854335652E-01
  6.1700000000E+03  2.3306121840E+00  7.3369532068E+00  4.6409193453E-02  4.5222629399E-02  3.9875229753E-01
  6.1750000000E+03  2.3329987254E+00  7.3340651668E+00  4.6523529558E-02  4.5331978511E-02  3.9896108147E-01
  6.1800000000E+03  2.3353857760E+00  7.3311805998E+00  4.6638054044E-02  4.5441498793E-02  3.9916970881E-01
  6.1850000000E+03  2.3377733355E+00  7.3282994988E+00  4.6752767067E-02  4.5551190355E-02  3.9937818002E-01
  6.1900000000E+03  2.3401614036E+00  7.3254218568E+00  4.6867668784E-02  4.5661053307E-02  3.9958649554E-01
  6.1950000000E+03  2.3425499950E+00  7.3225476669E+00  4.6982759351E-02  4.5771087763E-02  3.9979465586E-01
  6.2000000000E+03  2.3449392062E+00  7.3196769223E+00  4.7098038924E-02  4.5881293870E-02  4.0000266142E-01
  6.2050000000E+03  2.3473289253E+00  7.3168096159E+00  4.7213507660E-02  4.5991671696E-02  4.0021051268E-01
  6.2100000000E+03  2.3497191520E+00  7.3139457408E+00  4.7329165716E-02  4.6102221349E-02  4.0041821011E-01
  6.2150000000E+03  2.3521098858E+00  7.3110852904E+00  4.7445013248E-02  4.6212942938E-02  4.0062575416E-01
  6.2200000000E+03  2.3545011267E+00  7.3082282576E+00  4.7561050413E-02  4.6323836573E-02  4.0083314529E-01
  6.2250000000E+03  2.3568928741E+00  7.3053746356E+00  4.7677277366E-02  4.6434902362E-02  4.0104038394E-01
  6.2300000000E+03  2.3592851279E+00  7.3025244177E+00  4.7793694265E-02  4.6546140414E-02  4.0124747056E-01
  6.2350000000E+03  2.3616778878E+00  7.2996775971E+00  4.7910301265E-02  4.6657550839E-02  4.0145440562E-01
  6.2400000000E+03  2.3640711534E+00  7.2968341669E+00  4.8027098524E-02  4.6769133744E-02  4.0166118955E-01
  6.2450000000E+03  2.3664649245E+00  7.2939941205E+00  4.8144086198E-02  4.6880889239E-02  4.0186782280E-01
  6.2500000000E+03  2.3688592007E+00  7.2911574511E+00  4.8261264444E-02  4.6992817431E-02  4.0207430582E-01
  6.2550000000E+03  2.3712540597E+00  7.2883505162E+00  4.8378633417E-02  4.7104919561E-02  4.0228063905E-01
  6.2600000000E+03  2.3736494647E+00  7.2855779154E+00  4.8496193275E-02  4.7217195936E-02  4.0248682294E-01
  6.2650000000E+03  2.3760453741E+00  7.2828085818E+00  4.8613944173E-02  4.7329645356E-02  4.0269285793E-01
  6.2700000000E+03  2.3784417877E+00  7.2800425088E+00  4.8731886269E-02  4.7442267931E-02  4.0289874445E-01
  6.2750000000E+03  2.3808387050E+00  7.2772796900E+00  4.8850019719E-02  4.7555063767E-02  4.0310448294E-01
  6.2800000000E+03  2.3832361258E+00  7.2745201191E+00  4.8968344679E-02  4.7668032975E-02  4.0331007385E-01
  6.2850000000E+03  2.3856340499E+00  7.2717637896E+00  4.9086861306E-02  4.7781175660E-02  4.0351551761E-01
  6.2900000000E+03  2.3880324769E+00  7.2690106952E+00  4.9205569756E-02  4.7894491931E-02  4.0372081465E-01
  6.2950000000E+03  2.3904314065E+00  7.2662608294E+00  4.9324470186E-02  4.8007981897E-02  4.0392596540E-01
  6.3000000000E+03  2.3928308385E+00  7.2635141860E+00  4.9443562752E-02  4.8121645664E-02  4.0413097030E-01
  6.3050000000E+03  2.3952307725E+00  7.2607707585E+00  4.9562847611E-02  4.8235483340E-02  4.0433582978E-01
  6.3100000000E+03  2.3976311533E+00  7.2580305408E+00  4.9682324920E-02  4.8349495011E-02  4.0454054426E-01
  6.3150000000E+03  2.4000314507E+00  7.2552935265E+00  4.9801994834E-02  4.8463680567E-02  4.0474511418E-01
  6.3200000000E+03  2.4024322486E+00  7.2525597093E+00  4.9921857511E-02  4.8578040352E-02  4.0494953996E-01
  6.3250000000E+03  2.4048335465E+00  7.2498290829E+00  5.0041913107E-02  4.8692574475E-02  4.0515382202E-01
  6.3300000000E+03  2.4072353443E+00  7.2471016412E+00  5.0162161777E-02  4.8807283041E-02  4.0535796079E-01
  6.3350000000E+03  2.4096376416E+00  7.2443773779E+00  5.0282603680E-02  4.8922166158E-02  4.0556195669E-01
  6.3400000000E+03  2.4120404381E+00  7.2416562867E+00  5.0403238971E-02  4.9037223933E-02  4.0576581015E-01
  6.3450000000E+03  2.4144437336E+00  7.2389383616E+00  5.0524067807E-02  4.9152456473E-02  4.0596952158E-01
  6.3500000000E+03  2.4168475277E+00  7.2362235963E+00  5.0645090345E-02  4.9267863883E-02  4.0617309140E-01
