#[MATERIAL DEFINITION FOR MC-GPU: interaction mean free path and sampling data from PENELOPE 2018]
#[MATERIAL NAME]
# misc                                                          
#[NOMINAL DENSITY (g/cm^3)]
#   1.03000000
#[NUMBER OF DATA VALUES]
#  23002
#[MEAN FREE PATHS (cm) (ie, average distance between interactions)]
#[Energy (eV)     | Rayleigh        | Compton         | Photoelectric   | TOTAL (+pair prod) (cm) | Rayleigh: max cumul prob F^2]
  5.0000000000E+03  1.8574458711E+00  8.2534669956E+00  2.6100889858E-02  2.5659181222E-02  3.4589596918E-01
  5.0050000000E+03  1.8596390638E+00  8.2482787088E+00  2.6179703459E-02  2.5735716012E-02  3.4615603576E-01
  5.0100000000E+03  1.8618326525E+00  8.2430988591E+00  2.6258675711E-02  2.5812399819E-02  3.4641581574E-01
  5.0150000000E+03  1.8640282236E+00  8.2379274244E+00  2.6337806775E-02  2.5889233078E-02  3.4667530975E-01
  5.0200000000E+03  1.8662251407E+00  8.2327643826E+00  2.6417096811E-02  2.5966215796E-02  3.4693451844E-01
  5.0250000000E+03  1.8684224562E+00  8.2276097118E+00  2.6496545977E-02  2.6043347917E-02  3.4719344245E-01
  5.0300000000E+03  1.8706201697E+00  8.2224633901E+00  2.6576154434E-02  2.6120629571E-02  3.4745208242E-01
  5.0350000000E+03  1.8728182809E+00  8.2173253956E+00  2.6655922341E-02  2.6198060883E-02  3.4771043898E-01
  5.0400000000E+03  1.8750167894E+00  8.2121957068E+00  2.6735849858E-02  2.6275641981E-02  3.4796851277E-01
  5.0450000000E+03  1.8772156949E+00  8.2070743018E+00  2.6815937145E-02  2.6353372993E-02  3.4822630441E-01
  5.0500000000E+03  1.8794149971E+00  8.2019611592E+00  2.6896184360E-02  2.6431254045E-02  3.4848381454E-01
  5.0550000000E+03  1.8816146957E+00  8.1968562575E+00  2.6976591664E-02  2.6509285263E-02  3.4874104378E-01
  5.0600000000E+03  1.8838148914E+00  8.1917595752E+00  2.7057159217E-02  2.6587466796E-02  3.4899799276E-01
  5.0650000000E+03  1.8860156707E+00  8.1866710910E+00  2.7137887177E-02  2.6665798788E-02  3.4925466210E-01
  5.0700000000E+03  1.8882168458E+00  8.1815907836E+00  2.7218775705E-02  2.6744281327E-02  3.4951105243E-01
  5.0750000000E+03  1.8904184164E+00  8.1765186319E+00  2.7299824960E-02  2.6822914541E-02  3.4976716435E-01
  5.0800000000E+03  1.8926203822E+00  8.1714546148E+00  2.7381035103E-02  2.6901698556E-02  3.5002299849E-01
  5.0850000000E+03  1.8948227429E+00  8.1664876886E+00  2.7462406291E-02  2.6980634470E-02  3.5027855546E-01
  5.0900000000E+03  1.8970254980E+00  8.1615372858E+00  2.7543938686E-02  2.7059721544E-02  3.5053383587E-01
  5.0950000000E+03  1.8992286474E+00  8.1565947399E+00  2.7625632446E-02  2.7138959811E-02  3.5078884034E-01
  5.1000000000E+03  1.9014321907E+00  8.1516600308E+00  2.7707487732E-02  2.7218349398E-02  3.5104356947E-01
  5.1050000000E+03  1.9036361275E+00  8.1467331383E+00  2.7789504703E-02  2.7297890430E-02  3.5129802387E-01
  5.1100000000E+03  1.9058412234E+00  8.1418140425E+00  2.7871683518E-02  2.7377583193E-02  3.5155220414E-01
  5.1150000000E+03  1.9080467209E+00  8.1369027234E+00  2.7954024337E-02  2.7457427655E-02  3.5180611089E-01
  5.1200000000E+03  1.9102526121E+00  8.1319991611E+00  2.8036527321E-02  2.7537423943E-02  3.5205974471E-01
  5.1250000000E+03  1.9124588967E+00  8.1271033359E+00  2.8119192627E-02  2.7617572182E-02  3.5231310620E-01
  5.1300000000E+03  1.9146655743E+00  8.1222152279E+00  2.8202020417E-02  2.7697872498E-02  3.5256619597E-01
  5.1350000000E+03  1.9168726447E+00  8.1173348176E+00  2.8285010850E-02  2.7778325017E-02  3.5281901459E-01
  5.1400000000E+03  1.9190801074E+00  8.1124620853E+00  2.8368164084E-02  2.7858929864E-02  3.5307156267E-01
  5.1450000000E+03  1.9212879623E+00  8.1075970114E+00  2.8451480281E-02  2.7939687164E-02  3.5332384080E-01
  5.1500000000E+03  1.9234962089E+00  8.1027395766E+00  2.8534959599E-02  2.8020597044E-02  3.5357584957E-01
  5.1550000000E+03  1.9257053591E+00  8.0978897614E+00  2.8618602198E-02  2.8101659738E-02  3.5382758955E-01
  5.1600000000E+03  1.9279153340E+00  8.0930475465E+00  2.8702408238E-02  2.8182875355E-02  3.5407906138E-01
  5.1650000000E+03  1.9301257010E+00  8.0882651299E+00  2.8786377879E-02  2.8264244567E-02  3.5433026586E-01
  5.1700000000E+03  1.9323364599E+00  8.0835321757E+00  2.8870511279E-02  2.8345767385E-02  3.5458120371E-01
  5.1750000000E+03  1.9345476102E+00  8.0788065621E+00  2.8954808599E-02  2.8427443423E-02  3.5483187560E-01
  5.1800000000E+03  1.9367591517E+00  8.0740882708E+00  2.9039269998E-02  2.8509272808E-02  3.5508228220E-01
  5.1850000000E+03  1.9389710841E+00  8.0693772832E+00  2.9123895635E-02  2.8591255663E-02  3.5533242418E-01
  5.1900000000E+03  1.9411834070E+00  8.0646735811E+00  2.9208685672E-02  2.8673392115E-02  3.5558230221E-01
  5.1950000000E+03  1.9433961202E+00  8.0599771462E+00  2.9293640266E-02  2.8755682287E-02  3.5583191697E-01
  5.2000000000E+03  1.9456092309E+00  8.0552879602E+00  2.9378759577E-02  2.8838126306E-02  3.5608126910E-01
  5.2050000000E+03  1.9478236583E+00  8.0506060051E+00  2.9464043766E-02  2.8920724500E-02  3.5633035927E-01
  5.2100000000E+03  1.9500384763E+00  8.0459312628E+00  2.9549492992E-02  2.9003476790E-02  3.5657918815E-01
  5.2150000000E+03  1.9522536846E+00  8.0412637152E+00  2.9635107414E-02  2.9086383301E-02  3.5682775638E-01
  5.2200000000E+03  1.9544692829E+00  8.0366033444E+00  2.9720887192E-02  2.9169444157E-02  3.5707606462E-01
  5.2250000000E+03  1.9566852708E+00  8.0319501325E+00  2.9806832485E-02  2.9252659483E-02  3.5732411351E-01
  5.2300000000E+03  1.9589016480E+00  8.0273040617E+00  2.9892943454E-02  2.9336029403E-02  3.5757190372E-01
  5.2350000000E+03  1.9611184143E+00  8.0226651141E+00  2.9979220258E-02  2.9419554041E-02  3.5781943588E-01
  5.2400000000E+03  1.9633355693E+00  8.0180332721E+00  3.0065663055E-02  2.9503233521E-02  3.5806671064E-01
  5.2450000000E+03  1.9655531128E+00  8.0134085181E+00  3.0152272007E-02  2.9587067967E-02  3.5831372864E-01
  5.2500000000E+03  1.9677728241E+00  8.0088757173E+00  3.0239047273E-02  2.9671059074E-02  3.5856049052E-01
  5.2550000000E+03  1.9699957586E+00  8.0043558904E+00  3.0325989011E-02  2.9755206141E-02  3.5880699691E-01
  5.2600000000E+03  1.9722190866E+00  7.9998429090E+00  3.0413097382E-02  2.9839508570E-02  3.5905324845E-01
  5.2650000000E+03  1.9744428078E+00  7.9953367564E+00  3.0500372546E-02  2.9923966483E-02  3.5929924578E-01
  5.2700000000E+03  1.9766669219E+00  7.9908374157E+00  3.0587814662E-02  3.0008580004E-02  3.5954498951E-01
  5.2750000000E+03  1.9788914287E+00  7.9863448702E+00  3.0675423888E-02  3.0093349257E-02  3.5979048028E-01
  5.2800000000E+03  1.9811163278E+00  7.9818591032E+00  3.0763200387E-02  3.0178274366E-02  3.6003571872E-01
  5.2850000000E+03  1.9833416189E+00  7.9773800981E+00  3.0851144315E-02  3.0263355453E-02  3.6028070544E-01
  5.2900000000E+03  1.9855673018E+00  7.9729078382E+00  3.0939255834E-02  3.0348592643E-02  3.6052544107E-01
  5.2950000000E+03  1.9877933760E+00  7.9684423071E+00  3.1027535103E-02  3.0433986059E-02  3.6076992622E-01
  5.3000000000E+03  1.9900197975E+00  7.9639834883E+00  3.1115982281E-02  3.0519535813E-02  3.6101416151E-01
  5.3050000000E+03  1.9922465885E+00  7.9595313654E+00  3.1204597529E-02  3.0605242034E-02  3.6125814756E-01
  5.3100000000E+03  1.9944737699E+00  7.9550859221E+00  3.1293381004E-02  3.0691104850E-02  3.6150188497E-01
  5.3150000000E+03  1.9967013415E+00  7.9506471420E+00  3.1382332868E-02  3.0777124384E-02  3.6174537436E-01
  5.3200000000E+03  1.9989293029E+00  7.9462150089E+00  3.1471453280E-02  3.0863300758E-02  3.6198861633E-01
  5.3250000000E+03  2.0011576538E+00  7.9417895067E+00  3.1560742399E-02  3.0949634096E-02  3.6223161149E-01
  5.3300000000E+03  2.0033863939E+00  7.9373745194E+00  3.1650200385E-02  3.1036124580E-02  3.6247436044E-01
  5.3350000000E+03  2.0056155231E+00  7.9330500761E+00  3.1739827398E-02  3.1122773565E-02  3.6271686378E-01
  5.3400000000E+03  2.0078450408E+00  7.9287320365E+00  3.1829623596E-02  3.1209579897E-02  3.6295912211E-01
  5.3450000000E+03  2.0100749469E+00  7.9244203852E+00  3.1919589140E-02  3.1296543698E-02  3.6320113602E-01
  5.3500000000E+03  2.0123049531E+00  7.9201151067E+00  3.2009724189E-02  3.1383665020E-02  3.6344290611E-01
  5.3550000000E+03  2.0145353043E+00  7.9158161858E+00  3.2100028904E-02  3.1470944046E-02  3.6368443298E-01
  5.3600000000E+03  2.0167660426E+00  7.9115236070E+00  3.2190503442E-02  3.1558380907E-02  3.6392571720E-01
  5.3650000000E+03  2.0189971676E+00  7.9072373551E+00  3.2281147964E-02  3.1645975726E-02  3.6416675938E-01
  5.3700000000E+03  2.0212286791E+00  7.9029574150E+00  3.2371962630E-02  3.1733728625E-02  3.6440756009E-01
  5.3750000000E+03  2.0234605767E+00  7.8986837714E+00  3.2462947599E-02  3.1821639725E-02  3.6464811991E-01
  5.3800000000E+03  2.0256928602E+00  7.8944164093E+00  3.2554103030E-02  3.1909709150E-02  3.6488843944E-01
  5.3850000000E+03  2.0279255293E+00  7.8901553135E+00  3.2645429084E-02  3.1997937020E-02  3.6512851925E-01
  5.3900000000E+03  2.0301585837E+00  7.8859004692E+00  3.2736925919E-02  3.2086323457E-02  3.6536835992E-01
  5.3950000000E+03  2.0323920230E+00  7.8816518612E+00  3.2828593695E-02  3.2174868583E-02  3.6560796202E-01
  5.4000000000E+03  2.0346269466E+00  7.8774094748E+00  3.2920432573E-02  3.2263572797E-02  3.6584732612E-01
  5.4050000000E+03  2.0368622808E+00  7.8731732951E+00  3.3012442711E-02  3.2352435951E-02  3.6608645281E-01
  5.4100000000E+03  2.0390980005E+00  7.8689433072E+00  3.3104624269E-02  3.2441458161E-02  3.6632534264E-01
  5.4150000000E+03  2.0413341055E+00  7.8647194964E+00  3.3196977406E-02  3.2530639547E-02  3.6656399619E-01
  5.4200000000E+03  2.0435705955E+00  7.8605768494E+00  3.3289502282E-02  3.2619981524E-02  3.6680241401E-01
  5.4250000000E+03  2.0458074701E+00  7.8564500414E+00  3.3382199057E-02  3.2709483105E-02  3.6704059669E-01
  5.4300000000E+03  2.0480447291E+00  7.8523291987E+00  3.3475067891E-02  3.2799144243E-02  3.6727854476E-01
  5.4350000000E+03  2.0502823723E+00  7.8482143072E+00  3.3568108942E-02  3.2888965058E-02  3.6751625881E-01
  5.4400000000E+03  2.0525203992E+00  7.8441053529E+00  3.3661322370E-02  3.2978945673E-02  3.6775373937E-01
  5.4450000000E+03  2.0547588097E+00  7.8400023218E+00  3.3754708335E-02  3.3069086207E-02  3.6799098702E-01
  5.4500000000E+03  2.0570726308E+00  7.8359051999E+00  3.3848266997E-02  3.3159406278E-02  3.6822800230E-01
  5.4550000000E+03  2.0593873852E+00  7.8318139733E+00  3.3941998515E-02  3.3249886780E-02  3.6846478576E-01
  5.4600000000E+03  2.0617026200E+00  7.8277286281E+00  3.4035903048E-02  3.3340527718E-02  3.6870133796E-01
  5.4650000000E+03  2.0640183350E+00  7.8236491505E+00  3.4129980756E-02  3.3431329212E-02  3.6893765944E-01
  5.4700000000E+03  2.0663345297E+00  7.8195755267E+00  3.4224231799E-02  3.3522291383E-02  3.6917375076E-01
  5.4750000000E+03  2.0686512038E+00  7.8155077429E+00  3.4318656336E-02  3.3613414354E-02  3.6940961244E-01
  5.4800000000E+03  2.0709683569E+00  7.8114457855E+00  3.4413254527E-02  3.3704698243E-02  3.6964524504E-01
  5.4850000000E+03  2.0732859888E+00  7.8073896408E+00  3.4508026531E-02  3.3796143173E-02  3.6988064911E-01
  5.4900000000E+03  2.0756040991E+00  7.8033392952E+00  3.4602972507E-02  3.3887749265E-02  3.7011582516E-01
  5.4950000000E+03  2.0779226874E+00  7.7992947351E+00  3.4698092616E-02  3.3979516638E-02  3.7035077375E-01
  5.5000000000E+03  2.0802454360E+00  7.7952559471E+00  3.4793387017E-02  3.4071446401E-02  3.7058549541E-01
  5.5050000000E+03  2.0825689960E+00  7.7912595240E+00  3.4889351698E-02  3.4164013915E-02  3.7081999067E-01
  5.5100000000E+03  2.0848930384E+00  7.7873139778E+00  3.4985493288E-02  3.4256746087E-02  3.7105426007E-01
  5.5150000000E+03  2.0872175628E+00  7.7833740057E+00  3.5081811951E-02  3.4349642178E-02  3.7128830413E-01
  5.5200000000E+03  2.0895425688E+00  7.7794395947E+00  3.5178307852E-02  3.4442702312E-02  3.7152212356E-01
  5.5250000000E+03  2.0918680562E+00  7.7755107320E+00  3.5274981155E-02  3.4535926613E-02  3.7175571900E-01
  5.5300000000E+03  2.0941940246E+00  7.7715874047E+00  3.5371832024E-02  3.4629315205E-02  3.7198909108E-01
  5.5350000000E+03  2.0965204736E+00  7.7676696000E+00  3.5468860623E-02  3.4722868212E-02  3.7222224042E-01
  5.5400000000E+03  2.0988474030E+00  7.7637573052E+00  3.5566067117E-02  3.4816585758E-02  3.7245516761E-01
  5.5450000000E+03  2.1011748124E+00  7.7598505077E+00  3.5663451670E-02  3.4910467966E-02  3.7268787329E-01
  5.5500000000E+03  2.1035027781E+00  7.7559491946E+00  3.5761014447E-02  3.5004514982E-02  3.7292035805E-01
  5.5550000000E+03  2.1058312490E+00  7.7520533534E+00  3.5858755611E-02  3.5098726916E-02  3.7315262250E-01
  5.5600000000E+03  2.1081601991E+00  7.7481629714E+00  3.5956675327E-02  3.5193103883E-02  3.7338466725E-01
  5.5650000000E+03  2.1104896280E+00  7.7442780363E+00  3.6054773759E-02  3.5287646008E-02  3.7361649290E-01
  5.5700000000E+03  2.1128195353E+00  7.7403985353E+00  3.6153051072E-02  3.5382353413E-02  3.7384810005E-01
  5.5750000000E+03  2.1151499208E+00  7.7365244561E+00  3.6251507430E-02  3.5477226223E-02  3.7407948929E-01
  5.5800000000E+03  2.1174807840E+00  7.7326557862E+00  3.6350142997E-02  3.5572264559E-02  3.7431066123E-01
  5.5850000000E+03  2.1198121248E+00  7.7287925133E+00  3.6448957937E-02  3.5667468546E-02  3.7454161646E-01
  5.5900000000E+03  2.1221439427E+00  7.7249346250E+00  3.6547952415E-02  3.5762838306E-02  3.7477235556E-01
  5.5950000000E+03  2.1244762374E+00  7.7211393585E+00  3.6647126595E-02  3.5858375197E-02  3.7500287913E-01
  5.6000000000E+03  2.1268088680E+00  7.7173705182E+00  3.6746480641E-02  3.5954078539E-02  3.7523318775E-01
  5.6050000000E+03  2.1291418246E+00  7.7136068786E+00  3.6846014718E-02  3.6049947998E-02  3.7546328201E-01
  5.6100000000E+03  2.1314752567E+00  7.7098484279E+00  3.6945728990E-02  3.6145983740E-02  3.7569316249E-01
  5.6150000000E+03  2.1338091639E+00  7.7060951544E+00  3.7045623622E-02  3.6242185886E-02  3.7592282977E-01
  5.6200000000E+03  2.1361435459E+00  7.7023470462E+00  3.7145698776E-02  3.6338554559E-02  3.7615228443E-01
  5.6250000000E+03  2.1384784024E+00  7.6986040918E+00  3.7245954619E-02  3.6435089883E-02  3.7638152704E-01
  5.6300000000E+03  2.1408137330E+00  7.6948662795E+00  3.7346391314E-02  3.6531791979E-02  3.7661055818E-01
  5.6350000000E+03  2.1431495374E+00  7.6911335976E+00  3.7447009026E-02  3.6628660969E-02  3.7683937843E-01
  5.6400000000E+03  2.1454858154E+00  7.6874060345E+00  3.7547807918E-02  3.6725696976E-02  3.7706798834E-01
  5.6450000000E+03  2.1478225665E+00  7.6836835787E+00  3.7648788156E-02  3.6822900122E-02  3.7729638849E-01
  5.6500000000E+03  2.1501599371E+00  7.6799662187E+00  3.7749949903E-02  3.6920270572E-02  3.7752457944E-01
  5.6550000000E+03  2.1524987980E+00  7.6762539431E+00  3.7851293324E-02  3.7017808707E-02  3.7775256176E-01
  5.6600000000E+03  2.1548381326E+00  7.6725467403E+00  3.7952818583E-02  3.7115514348E-02  3.7798033602E-01
  5.6650000000E+03  2.1571779407E+00  7.6688445990E+00  3.8054525844E-02  3.7213387619E-02  3.7820790275E-01
  5.6700000000E+03  2.1595182218E+00  7.6651475078E+00  3.8156415273E-02  3.7311428641E-02  3.7843526254E-01
  5.6750000000E+03  2.1618589756E+00  7.6614554553E+00  3.8258487032E-02  3.7409637535E-02  3.7866241593E-01
  5.6800000000E+03  2.1642002019E+00  7.6577684304E+00  3.8360741287E-02  3.7508014422E-02  3.7888936347E-01
  5.6850000000E+03  2.1665419002E+00  7.6541410221E+00  3.8463178202E-02  3.7606560743E-02  3.7911610572E-01
  5.6900000000E+03  2.1688840703E+00  7.6505389835E+00  3.8565797941E-02  3.7705275812E-02  3.7934264323E-01
  5.6950000000E+03  2.1712267119E+00  7.6469418016E+00  3.8668600668E-02  3.7804159257E-02  3.7956897654E-01
  5.7000000000E+03  2.1735698246E+00  7.6433494656E+00  3.8771586549E-02  3.7903211201E-02  3.7979510620E-01
  5.7050000000E+03  2.1759134543E+00  7.6397619647E+00  3.8874755746E-02  3.8002431778E-02  3.8002103275E-01
  5.7100000000E+03  2.1782575769E+00  7.6361792883E+00  3.8978108425E-02  3.8101821102E-02  3.8024675674E-01
  5.7150000000E+03  2.1806021699E+00  7.6326014256E+00  3.9081644749E-02  3.8201379289E-02  3.8047227871E-01
  5.7200000000E+03  2.1829472328E+00  7.6290283660E+00  3.9185364884E-02  3.8301106457E-02  3.8069759919E-01
  5.7250000000E+03  2.1852927653E+00  7.6254600988E+00  3.9289268994E-02  3.8401002729E-02  3.8092271871E-01
  5.7300000000E+03  2.1876387672E+00  7.6218966133E+00  3.9393357242E-02  3.8501068225E-02  3.8114763783E-01
  5.7350000000E+03  2.1899852381E+00  7.6183378991E+00  3.9497629793E-02  3.8601303065E-02  3.8137235706E-01
  5.7400000000E+03  2.1923321776E+00  7.6147839456E+00  3.9602086812E-02  3.8701707370E-02  3.8159687694E-01
  5.7450000000E+03  2.1946795856E+00  7.6112347423E+00  3.9706728463E-02  3.8802281261E-02  3.8182119799E-01
  5.7500000000E+03  2.1970274616E+00  7.6076902787E+00  3.9811554910E-02  3.8903024858E-02  3.8204532075E-01
  5.7550000000E+03  2.1993758912E+00  7.6041505444E+00  3.9916566318E-02  3.9003938307E-02  3.8226924573E-01
  5.7600000000E+03  2.2017254191E+00  7.6006155289E+00  4.0021762850E-02  3.9105021901E-02  3.8249297347E-01
  5.7650000000E+03  2.2040754151E+00  7.5970852219E+00  4.0127144672E-02  3.9206275564E-02  3.8271650448E-01
  5.7700000000E+03  2.2064258787E+00  7.5935596130E+00  4.0232711948E-02  3.9307699414E-02  3.8293983928E-01
  5.7750000000E+03  2.2087768098E+00  7.5900699386E+00  4.0338464841E-02  3.9409294414E-02  3.8316297839E-01
  5.7800000000E+03  2.2111282079E+00  7.5866254760E+00  4.0444403517E-02  3.9511060950E-02  3.8338592233E-01
  5.7850000000E+03  2.2134800728E+00  7.5831855528E+00  4.0550528140E-02  3.9612998054E-02  3.8360867160E-01
  5.7900000000E+03  2.2158324042E+00  7.5797501592E+00  4.0656838874E-02  3.9715105845E-02  3.8383122674E-01
  5.7950000000E+03  2.2181852017E+00  7.5763192853E+00  4.0763335883E-02  3.9817384443E-02  3.8405358823E-01
  5.8000000000E+03  2.2205384651E+00  7.5728929213E+00  4.0870019333E-02  3.9919833966E-02  3.8427575660E-01
  5.8050000000E+03  2.2228921941E+00  7.5694710573E+00  4.0976889386E-02  4.0022454535E-02  3.8449773235E-01
  5.8100000000E+03  2.2252471206E+00  7.5660536836E+00  4.1083946208E-02  4.0125246506E-02  3.8471951598E-01
  5.8150000000E+03  2.2276033326E+00  7.5626407904E+00  4.1191189963E-02  4.0228210031E-02  3.8494110800E-01
  5.8200000000E+03  2.2299600113E+00  7.5592323680E+00  4.1298620815E-02  4.0331344962E-02  3.8516250892E-01
  5.8250000000E+03  2.2323171562E+00  7.5558284067E+00  4.1406238929E-02  4.0434651419E-02  3.8538371922E-01
  5.8300000000E+03  2.2346747670E+00  7.5524288968E+00  4.1514044469E-02  4.0538129521E-02  3.8560473942E-01
  5.8350000000E+03  2.2370328435E+00  7.5490338288E+00  4.1622037599E-02  4.0641779386E-02  3.8582557001E-01
  5.8400000000E+03  2.2393913853E+00  7.5456431930E+00  4.1730218484E-02  4.0745601134E-02  3.8604621147E-01
  5.8450000000E+03  2.2417503921E+00  7.5422569799E+00  4.1838587288E-02  4.0849594882E-02  3.8626666432E-01
  5.8500000000E+03  2.2441098636E+00  7.5388751798E+00  4.1947144176E-02  4.0953760750E-02  3.8648692903E-01
  5.8550000000E+03  2.2464697996E+00  7.5354977833E+00  4.2055889312E-02  4.1058098856E-02  3.8670700605E-01
  5.8600000000E+03  2.2488301996E+00  7.5321247810E+00  4.2164822860E-02  4.1162609319E-02  3.8692689592E-01
  5.8650000000E+03  2.2511912750E+00  7.5287561632E+00  4.2273944985E-02  4.1267292327E-02  3.8714659917E-01
  5.8700000000E+03  2.2535528949E+00  7.5254502011E+00  4.2383255850E-02  4.1372149717E-02  3.8736611635E-01
  5.8750000000E+03  2.2559149783E+00  7.5221589557E+00  4.2492755622E-02  4.1477180155E-02  3.8758544799E-01
  5.8800000000E+03  2.2582775249E+00  7.5188719477E+00  4.2602444463E-02  4.1582383443E-02  3.8780459464E-01
  5.8850000000E+03  2.2606405345E+00  7.5155891681E+00  4.2712322538E-02  4.1687759701E-02  3.8802355683E-01
  5.8900000000E+03  2.2630040067E+00  7.5123106079E+00  4.2822390012E-02  4.1793309045E-02  3.8824233509E-01
  5.8950000000E+03  2.2653679413E+00  7.5090362581E+00  4.2932647049E-02  4.1899031595E-02  3.8846092995E-01
  5.9000000000E+03  2.2677323379E+00  7.5057661096E+00  4.3043093813E-02  4.2004927466E-02  3.8867934195E-01
  5.9050000000E+03  2.2700971963E+00  7.5025001537E+00  4.3153730470E-02  4.2110996778E-02  3.8889757161E-01
  5.9100000000E+03  2.2724625161E+00  7.4992383813E+00  4.3264557182E-02  4.2217239647E-02  3.8911561946E-01
  5.9150000000E+03  2.2748282971E+00  7.4959807835E+00  4.3375574115E-02  4.2323656192E-02  3.8933348602E-01
  5.9200000000E+03  2.2771959068E+00  7.4927273515E+00  4.3486781433E-02  4.2430247004E-02  3.8955117182E-01
  5.9250000000E+03  2.2795641726E+00  7.4894780765E+00  4.3598179300E-02  4.2537011796E-02  3.8976867737E-01
  5.9300000000E+03  2.2819329005E+00  7.4862329496E+00  4.3709767881E-02  4.2643950619E-02  3.8998600319E-01
  5.9350000000E+03  2.2843020903E+00  7.4829919621E+00  4.3821547340E-02  4.2751063590E-02  3.9020314981E-01
  5.9400000000E+03  2.2866717416E+00  7.4797551051E+00  4.3933517842E-02  4.2858350826E-02  3.9042011773E-01
  5.9450000000E+03  2.2890418542E+00  7.4765223700E+00  4.4045679551E-02  4.2965812443E-02  3.9063690746E-01
  5.9500000000E+03  2.2914124278E+00  7.4732937481E+00  4.4158032631E-02  4.3073448559E-02  3.9085351953E-01
  5.9550000000E+03  2.2937834621E+00  7.4700692306E+00  4.4270577247E-02  4.3181259290E-02  3.9106995444E-01
  5.9600000000E+03  2.2961549567E+00  7.4668488089E+00  4.4383313563E-02  4.3289244752E-02  3.9128621270E-01
  5.9650000000E+03  2.2985269115E+00  7.4636957027E+00  4.4496241744E-02  4.3397407201E-02  3.9150229481E-01
  5.9700000000E+03  2.3008993260E+00  7.4605490863E+00  4.4609361954E-02  4.3505744721E-02  3.9171820128E-01
  5.9750000000E+03  2.3032715005E+00  7.4574064291E+00  4.4722674357E-02  4.3614257093E-02  3.9193393261E-01
  5.9800000000E+03  2.3056440806E+00  7.4542677228E+00  4.4836179118E-02  4.3722944665E-02  3.9214948930E-01
  5.9850000000E+03  2.3080171187E+00  7.4511329591E+00  4.4949876401E-02  4.3831807570E-02  3.9236487185E-01
  5.9900000000E+03  2.3103906145E+00  7.4480021298E+00  4.5063766371E-02  4.3940845925E-02  3.9258008076E-01
  5.9950000000E+03  2.3127645677E+00  7.4448752266E+00  4.5177849192E-02  4.4050059846E-02  3.9279511653E-01
  6.0000000000E+03  2.3151389780E+00  7.4417522414E+00  4.5292125028E-02  4.4159449449E-02  3.9300997965E-01
  6.0050000000E+03  2.3175138451E+00  7.4386331660E+00  4.5407397049E-02  4.4269778123E-02  3.9322467061E-01
  6.0100000000E+03  2.3198891687E+00  7.4355179923E+00  4.5522865843E-02  4.4380285827E-02  3.9343918990E-01
  6.0150000000E+03  2.3222649486E+00  7.4324067121E+00  4.5638531581E-02  4.4490972683E-02  3.9365353801E-01
  6.0200000000E+03  2.3246411843E+00  7.4292993173E+00  4.5754394435E-02  4.4601838812E-02  3.9386771544E-01
  6.0250000000E+03  2.3270178757E+00  7.4261957999E+00  4.5870454576E-02  4.4712884333E-02  3.9408172266E-01
  6.0300000000E+03  2.3294034417E+00  7.4230961519E+00  4.5986712174E-02  4.4824112486E-02  3.9429556016E-01
  6.0350000000E+03  2.3317906219E+00  7.4200003651E+00  4.6103167400E-02  4.4935520720E-02  3.9450922842E-01
  6.0400000000E+03  2.3341782684E+00  7.4169084316E+00  4.6219820426E-02  4.5047108734E-02  3.9472272792E-01
  6.0450000000E+03  2.3365663810E+00  7.4138203434E+00  4.6336671422E-02  4.5158876647E-02  3.9493605915E-01
  6.0500000000E+03  2.3389549594E+00  7.4107360925E+00  4.6453720559E-02  4.5270824580E-02  3.9514922258E-01
  6.0550000000E+03  2.3413440033E+00  7.4076556711E+00  4.6570968009E-02  4.5382952652E-02  3.9536221869E-01
  6.0600000000E+03  2.3437335124E+00  7.4046275775E+00  4.6688413942E-02  4.5495262814E-02  3.9557504795E-01
  6.0650000000E+03  2.3461234865E+00  7.4016175744E+00  4.6806058530E-02  4.5607753918E-02  3.9578771083E-01
  6.0700000000E+03  2.3485139251E+00  7.3986112739E+00  4.6923901943E-02  4.5720425545E-02  3.9600020782E-01
  6.0750000000E+03  2.3509048282E+00  7.3956086682E+00  4.7041944353E-02  4.5833277814E-02  3.9621253937E-01
  6.0800000000E+03  2.3532961952E+00  7.3926097498E+00  4.7160185930E-02  4.5946310845E-02  3.9642470595E-01
  6.0850000000E+03  2.3557299665E+00  7.3896145112E+00  4.7278626845E-02  4.6059540790E-02  3.9663670804E-01
  6.0900000000E+03  2.3581797748E+00  7.3866229448E+00  4.7397267271E-02  4.6172957799E-02  3.9684854610E-01
  6.0950000000E+03  2.3606301171E+00  7.3836350432E+00  4.7516107376E-02  4.6286556082E-02  3.9706022059E-01
  6.1000000000E+03  2.3630809931E+00  7.3806507987E+00  4.7635147333E-02  4.6400335758E-02  3.9727173197E-01
  6.1050000000E+03  2.3655324024E+00  7.3776702041E+00  4.7754387313E-02  4.6514296948E-02  3.9748308072E-01
  6.1100000000E+03  2.3679843448E+00  7.3746932517E+00  4.7873827487E-02  4.6628439770E-02  3.9769426727E-01
  6.1150000000E+03  2.3704368199E+00  7.3717199343E+00  4.7993468026E-02  4.6742764345E-02  3.9790529210E-01
  6.1200000000E+03  2.3728898273E+00  7.3687502443E+00  4.8113309100E-02  4.6857270792E-02  3.9811615566E-01
  6.1250000000E+03  2.3753433669E+00  7.3657841744E+00  4.8233350881E-02  4.6971959230E-02  3.9832685841E-01
  6.1300000000E+03  2.3777974382E+00  7.3628217173E+00  4.8353593540E-02  4.7086829778E-02  3.9853740079E-01
  6.1350000000E+03  2.3802520409E+00  7.3598628655E+00  4.8474037248E-02  4.7201882556E-02  3.9874778327E-01
  6.1400000000E+03  2.3827075435E+00  7.3569076118E+00  4.8594682177E-02  4.7317117828E-02  3.9895800629E-01
  6.1450000000E+03  2.3851639836E+00  7.3539559489E+00  4.8715528496E-02  4.7432535729E-02  3.9916807030E-01
  6.1500000000E+03  2.3876209552E+00  7.3510078695E+00  4.8836576378E-02  4.7548136219E-02  3.9937797575E-01
  6.1550000000E+03  2.3900784578E+00  7.3480797384E+00  4.8957825993E-02  4.7663920104E-02  3.9958772308E-01
  6.1600000000E+03  2.3925364913E+00  7.3451988585E+00  4.9079277513E-02  4.7779888671E-02  3.9979731275E-01
  6.1650000000E+03  2.3949950553E+00  7.3423214440E+00  4.9200931109E-02  4.7896040207E-02  4.0000674519E-01
  6.1700000000E+03  2.3974541495E+00  7.3394474882E+00  4.9322786951E-02  4.8012374831E-02  4.0021602111E-01
  6.1750000000E+03  2.3999137735E+00  7.3365769839E+00  4.9444845211E-02  4.8128892661E-02  4.0042514112E-01
  6.1800000000E+03  2.4023739271E+00  7.3337099243E+00  4.9567106059E-02  4.8245593815E-02  4.0063410567E-01
  6.1850000000E+03  2.4048346099E+00  7.3308463024E+00  4.9689569668E-02  4.8362478411E-02  4.0084291524E-01
  6.1900000000E+03  2.4072958217E+00  7.3279861114E+00  4.9812236208E-02  4.8479546568E-02  4.0105157028E-01
  6.1950000000E+03  2.4097575903E+00  7.3251293444E+00  4.9935105851E-02  4.8596798416E-02  4.0126007125E-01
  6.2000000000E+03  2.4122200993E+00  7.3222759945E+00  5.0058178766E-02  4.8714234146E-02  4.0146841862E-01
  6.2050000000E+03  2.4146831365E+00  7.3194260549E+00  5.0181455127E-02  4.8831853792E-02  4.0167661284E-01
  6.2100000000E+03  2.4171467016E+00  7.3165795187E+00  5.0304935103E-02  4.8949657471E-02  4.0188465436E-01
  6.2150000000E+03  2.4196107945E+00  7.3137363792E+00  5.0428618866E-02  4.9067645301E-02  4.0209254364E-01
  6.2200000000E+03  2.4220754146E+00  7.3108966296E+00  5.0552506586E-02  4.9185817398E-02  4.0230028114E-01
  6.2250000000E+03  2.4245405618E+00  7.3080602631E+00  5.0676598437E-02  4.9304173881E-02  4.0250786729E-01
  6.2300000000E+03  2.4270062358E+00  7.3052272729E+00  5.0800894587E-02  4.9422714867E-02  4.0271530257E-01
  6.2350000000E+03  2.4294724361E+00  7.3023976524E+00  5.0925395209E-02  4.9541440473E-02  4.0292258740E-01
  6.2400000000E+03  2.4319391625E+00  7.2995713949E+00  5.1050100473E-02  4.9660350817E-02  4.0312972224E-01
  6.2450000000E+03  2.4344064147E+00  7.2967484936E+00  5.1175010552E-02  4.9779446014E-02  4.0333670754E-01
  6.2500000000E+03  2.4368741924E+00  7.2939289420E+00  5.1300125615E-02  4.9898726183E-02  4.0354354374E-01
  6.2550000000E+03  2.4393426352E+00  7.2911391098E+00  5.1425445835E-02  5.0018192740E-02  4.0375023128E-01
  6.2600000000E+03  2.4418116771E+00  7.2883835992E+00  5.1550971382E-02  5.0137846013E-02  4.0395677060E-01
  6.2650000000E+03  2.4442812438E+00  7.2856313287E+00  5.1676702428E-02  5.0257684634E-02  4.0416316214E-01
  6.2700000000E+03  2.4467513350E+00  7.2828822920E+00  5.1802639143E-02  5.0377708719E-02  4.0436940635E-01
  6.2750000000E+03  2.4492219504E+00  7.2801364827E+00  5.1928781699E-02  5.0497918385E-02  4.0457550365E-01
  6.2800000000E+03  2.4516930898E+00  7.2773938944E+00  5.2055130268E-02  5.0618313749E-02  4.0478145449E-01
  6.2850000000E+03  2.4541647527E+00  7.2746545207E+00  5.2181685020E-02  5.0738894927E-02  4.0498725930E-01
  6.2900000000E+03  2.4566369389E+00  7.2719183555E+00  5.2308446126E-02  5.0859662034E-02  4.0519291851E-01
  6.2950000000E+03  2.4591096480E+00  7.2691853923E+00  5.2435413758E-02  5.0980615188E-02  4.0539843256E-01
  6.3000000000E+03  2.4615828799E+00  7.2664556248E+00  5.2562588088E-02  5.1101754503E-02  4.0560380187E-01
  6.3050000000E+03  2.4640566341E+00  7.2637290469E+00  5.2689969285E-02  5.1223080097E-02  4.0580902687E-01
  6.3100000000E+03  2.4665308360E+00  7.2610056522E+00  5.2817557522E-02  5.1344592052E-02  4.0601410799E-01
  6.3150000000E+03  2.4690047689E+00  7.2582854345E+00  5.2945352970E-02  5.1466290173E-02  4.0621904566E-01
  6.3200000000E+03  2.4714792221E+00  7.2555683876E+00  5.3073355800E-02  5.1588174917E-02  4.0642384031E-01
  6.3250000000E+03  2.4739541954E+00  7.2528545053E+00  5.3201566183E-02  5.1710246398E-02  4.0662849235E-01
  6.3300000000E+03  2.4764296886E+00  7.2501437815E+00  5.3329984290E-02  5.1832504734E-02  4.0683300221E-01
  6.3350000000E+03  2.4789057012E+00  7.2474362099E+00  5.3458610293E-02  5.1954950037E-02  4.0703737031E-01
  6.3400000000E+03  2.4813822330E+00  7.2447317843E+00  5.3587444363E-02  5.2077582425E-02  4.0724159707E-01
  6.3450000000E+03  2.4838592838E+00  7.2420304988E+00  5.3716486671E-02  5.2200402012E-02  4.0744568290E-01
  6.3500000000E+03  2.4863368532E+00  7.2393323471E+00  5.3845737389E-02  5.2323408913E-02  4.0764962824E-01
