#[MATERIAL DEFINITION FOR MC-GPU: interaction mean free path and sampling data from PENELOPE 2018]
#[MATERIAL NAME]
# pelvis                                                        
#[NOMINAL DENSITY (g/cm^3)]
#   1.10900000
#[NUMBER OF DATA VALUES]
#  23002
#[MEAN FREE PATHS (cm) (ie, average distance between interactions)]
#[Energy (eV)     | Rayleigh        | Compton         | Photoelectric   | TOTAL (+pair prod) (cm) | Rayleigh: max cumul prob F^2]
  5.0000000000E+03  1.7033351036E+00  7.4035865753E+00  1.5949501139E-02  1.5767886879E-02  3.1172673318E-01
  5.0050000000E+03  1.7051151511E+00  7.3997473650E+00  1.5994782390E-02  1.5812277066E-02  3.1197997819E-01
  5.0100000000E+03  1.7068952785E+00  7.3959139760E+00  1.6040145999E-02  1.5856746095E-02  3.1223301516E-01
  5.0150000000E+03  1.7086757886E+00  7.3920863938E+00  1.6085592032E-02  1.5901294048E-02  3.1248584461E-01
  5.0200000000E+03  1.7104565597E+00  7.3882646037E+00  1.6131120553E-02  1.5945920968E-02  3.1273846704E-01
  5.0250000000E+03  1.7122374113E+00  7.3844485912E+00  1.6176731628E-02  1.5990626894E-02  3.1299088297E-01
  5.0300000000E+03  1.7140183430E+00  7.3806383419E+00  1.6222425322E-02  1.6035411880E-02  3.1324309291E-01
  5.0350000000E+03  1.7157993550E+00  7.3768338413E+00  1.6268201700E-02  1.6080275982E-02  3.1349509735E-01
  5.0400000000E+03  1.7175804471E+00  7.3730350751E+00  1.6314060826E-02  1.6125219254E-02  3.1374689681E-01
  5.0450000000E+03  1.7193616192E+00  7.3692420290E+00  1.6360002767E-02  1.6170241749E-02  3.1399849178E-01
  5.0500000000E+03  1.7211428713E+00  7.3654546886E+00  1.6406027586E-02  1.6215343521E-02  3.1424988277E-01
  5.0550000000E+03  1.7229242033E+00  7.3616730398E+00  1.6452135349E-02  1.6260524627E-02  3.1450107028E-01
  5.0600000000E+03  1.7247151732E+00  7.3578970684E+00  1.6498326121E-02  1.6305785972E-02  3.1475205480E-01
  5.0650000000E+03  1.7265239937E+00  7.3541267602E+00  1.6544599967E-02  1.6351128359E-02  3.1500283683E-01
  5.0700000000E+03  1.7283329237E+00  7.3503621013E+00  1.6590956951E-02  1.6396550259E-02  3.1525341687E-01
  5.0750000000E+03  1.7301419632E+00  7.3466030775E+00  1.6637397140E-02  1.6442051728E-02  3.1550379541E-01
  5.0800000000E+03  1.7319511119E+00  7.3428496749E+00  1.6683920596E-02  1.6487632820E-02  3.1575397294E-01
  5.0850000000E+03  1.7337603698E+00  7.3391623353E+00  1.6730527386E-02  1.6533293895E-02  3.1600394995E-01
  5.0900000000E+03  1.7355697368E+00  7.3354863309E+00  1.6777217575E-02  1.6579034734E-02  3.1625372694E-01
  5.0950000000E+03  1.7373792127E+00  7.3318157742E+00  1.6823991226E-02  1.6624855362E-02  3.1650330439E-01
  5.1000000000E+03  1.7391887976E+00  7.3281506519E+00  1.6870848406E-02  1.6670755832E-02  3.1675268279E-01
  5.1050000000E+03  1.7409984912E+00  7.3244909505E+00  1.6917789178E-02  1.6716736199E-02  3.1700186262E-01
  5.1100000000E+03  1.7428138263E+00  7.3208366569E+00  1.6964813607E-02  1.6762797027E-02  3.1725084437E-01
  5.1150000000E+03  1.7446293320E+00  7.3171877576E+00  1.7011921759E-02  1.6808937869E-02  3.1749962853E-01
  5.1200000000E+03  1.7464449523E+00  7.3135442394E+00  1.7059113698E-02  1.6855158773E-02  3.1774821556E-01
  5.1250000000E+03  1.7482606871E+00  7.3099060893E+00  1.7106389489E-02  1.6901459793E-02  3.1799660596E-01
  5.1300000000E+03  1.7500765364E+00  7.3062732940E+00  1.7153749197E-02  1.6947840983E-02  3.1824480019E-01
  5.1350000000E+03  1.7518924999E+00  7.3026458404E+00  1.7201192885E-02  1.6994302396E-02  3.1849279875E-01
  5.1400000000E+03  1.7537085777E+00  7.2990237156E+00  1.7248720620E-02  1.7040844086E-02  3.1874060205E-01
  5.1450000000E+03  1.7555247697E+00  7.2954069065E+00  1.7296332465E-02  1.7087466106E-02  3.1898821039E-01
  5.1500000000E+03  1.7573410756E+00  7.2917954002E+00  1.7344028485E-02  1.7134168511E-02  3.1923562426E-01
  5.1550000000E+03  1.7591592280E+00  7.2881891837E+00  1.7391808746E-02  1.7180951519E-02  3.1948284417E-01
  5.1600000000E+03  1.7609789609E+00  7.2845882442E+00  1.7439673311E-02  1.7227815160E-02  3.1972987063E-01
  5.1650000000E+03  1.7627988111E+00  7.2810279776E+00  1.7487622245E-02  1.7274759547E-02  3.1997670416E-01
  5.1700000000E+03  1.7646187783E+00  7.2775013856E+00  1.7535655612E-02  1.7321784699E-02  3.2022334524E-01
  5.1750000000E+03  1.7664388626E+00  7.2739799082E+00  1.7583773478E-02  1.7368890508E-02  3.2046979439E-01
  5.1800000000E+03  1.7682590637E+00  7.2704635331E+00  1.7631975907E-02  1.7416077029E-02  3.2071605210E-01
  5.1850000000E+03  1.7700793816E+00  7.2669522480E+00  1.7680262963E-02  1.7463344315E-02  3.2096211889E-01
  5.1900000000E+03  1.7718998162E+00  7.2634460405E+00  1.7728634711E-02  1.7510692419E-02  3.2120799524E-01
  5.1950000000E+03  1.7737203674E+00  7.2599448986E+00  1.7777091215E-02  1.7558121394E-02  3.2145368166E-01
  5.2000000000E+03  1.7755410394E+00  7.2564488099E+00  1.7825632541E-02  1.7605631294E-02  3.2169917863E-01
  5.2050000000E+03  1.7773623735E+00  7.2529577624E+00  1.7874258751E-02  1.7653222226E-02  3.2194448667E-01
  5.2100000000E+03  1.7791838243E+00  7.2494717439E+00  1.7922969912E-02  1.7700894189E-02  3.2218960625E-01
  5.2150000000E+03  1.7810053920E+00  7.2459907425E+00  1.7971766086E-02  1.7748647237E-02  3.2243453787E-01
  5.2200000000E+03  1.7828270763E+00  7.2425147460E+00  1.8020647339E-02  1.7796481422E-02  3.2267928202E-01
  5.2250000000E+03  1.7846488771E+00  7.2390437425E+00  1.8069613736E-02  1.7844396797E-02  3.2292383919E-01
  5.2300000000E+03  1.7864707944E+00  7.2355777200E+00  1.8118665339E-02  1.7892393417E-02  3.2316820987E-01
  5.2350000000E+03  1.7882928280E+00  7.2321166668E+00  1.8167802215E-02  1.7940471333E-02  3.2341239454E-01
  5.2400000000E+03  1.7901149779E+00  7.2286605708E+00  1.8217024426E-02  1.7988630598E-02  3.2365639368E-01
  5.2450000000E+03  1.7919372438E+00  7.2252094202E+00  1.8266380637E-02  1.8036918651E-02  3.2390020779E-01
  5.2500000000E+03  1.7937618340E+00  7.2218206460E+00  1.8316027570E-02  1.8085488862E-02  3.2414383734E-01
  5.2550000000E+03  1.7955900567E+00  7.2184408121E+00  1.8365761276E-02  1.8134142160E-02  3.2438728280E-01
  5.2600000000E+03  1.7974184015E+00  7.2150657722E+00  1.8415581822E-02  1.8182878217E-02  3.2463054467E-01
  5.2650000000E+03  1.7992468681E+00  7.2116955146E+00  1.8465489275E-02  1.8231697090E-02  3.2487362342E-01
  5.2700000000E+03  1.8010754565E+00  7.2083300283E+00  1.8515483702E-02  1.8280598832E-02  3.2511651952E-01
  5.2750000000E+03  1.8029041667E+00  7.2049693018E+00  1.8565565170E-02  1.8329583500E-02  3.2535923345E-01
  5.2800000000E+03  1.8047329984E+00  7.2016133240E+00  1.8615733746E-02  1.8378651148E-02  3.2560176569E-01
  5.2850000000E+03  1.8065619515E+00  7.1982620836E+00  1.8665989496E-02  1.8427801831E-02  3.2584411669E-01
  5.2900000000E+03  1.8083910261E+00  7.1949155695E+00  1.8716332487E-02  1.8477035604E-02  3.2608628694E-01
  5.2950000000E+03  1.8102202219E+00  7.1915737706E+00  1.8766762787E-02  1.8526352522E-02  3.2632827691E-01
  5.3000000000E+03  1.8120628187E+00  7.1882366758E+00  1.8817280461E-02  1.8575754036E-02  3.2657008706E-01
  5.3050000000E+03  1.8139119776E+00  7.1849042740E+00  1.8867885578E-02  1.8625239493E-02  3.2681171786E-01
  5.3100000000E+03  1.8157612789E+00  7.1815765543E+00  1.8918578203E-02  1.8674808275E-02  3.2705316977E-01
  5.3150000000E+03  1.8176107224E+00  7.1782535056E+00  1.8969358404E-02  1.8724460437E-02  3.2729444326E-01
  5.3200000000E+03  1.8194603080E+00  7.1749351169E+00  1.9020226247E-02  1.8774196035E-02  3.2753553879E-01
  5.3250000000E+03  1.8213100355E+00  7.1716213775E+00  1.9071181799E-02  1.8824015123E-02  3.2777645682E-01
  5.3300000000E+03  1.8231599048E+00  7.1683149099E+00  1.9122225126E-02  1.8873917773E-02  3.2801719782E-01
  5.3350000000E+03  1.8250099159E+00  7.1650697535E+00  1.9173356296E-02  1.8923904418E-02  3.2825776224E-01
  5.3400000000E+03  1.8268600685E+00  7.1618291042E+00  1.9224575376E-02  1.8973974722E-02  3.2849815053E-01
  5.3450000000E+03  1.8287103627E+00  7.1585929514E+00  1.9275882431E-02  1.9024128738E-02  3.2873836317E-01
  5.3500000000E+03  1.8305655962E+00  7.1553612847E+00  1.9327277528E-02  1.9074367043E-02  3.2897840059E-01
  5.3550000000E+03  1.8324216808E+00  7.1521340937E+00  1.9378760735E-02  1.9124689250E-02  3.2921826325E-01
  5.3600000000E+03  1.8342779126E+00  7.1489113680E+00  1.9430332118E-02  1.9175095338E-02  3.2945795162E-01
  5.3650000000E+03  1.8361342913E+00  7.1456930973E+00  1.9481991743E-02  1.9225585362E-02  3.2969746613E-01
  5.3700000000E+03  1.8379908168E+00  7.1424792713E+00  1.9533739677E-02  1.9276159375E-02  3.2993680724E-01
  5.3750000000E+03  1.8398474891E+00  7.1392698797E+00  1.9585575987E-02  1.9326817433E-02  3.3017597539E-01
  5.3800000000E+03  1.8417043080E+00  7.1360649123E+00  1.9637500740E-02  1.9377559589E-02  3.3041497104E-01
  5.3850000000E+03  1.8435612733E+00  7.1328643589E+00  1.9689514001E-02  1.9428385898E-02  3.3065379463E-01
  5.3900000000E+03  1.8454183850E+00  7.1296682093E+00  1.9741615837E-02  1.9479296415E-02  3.3089244661E-01
  5.3950000000E+03  1.8472756429E+00  7.1264764534E+00  1.9793806316E-02  1.9530291193E-02  3.3113092741E-01
  5.4000000000E+03  1.8491331118E+00  7.1232890811E+00  1.9846085503E-02  1.9581370294E-02  3.3136923749E-01
  5.4050000000E+03  1.8509907281E+00  7.1201060822E+00  1.9898453465E-02  1.9632533764E-02  3.3160737728E-01
  5.4100000000E+03  1.8528484903E+00  7.1169274469E+00  1.9950910268E-02  1.9683781659E-02  3.3184534723E-01
  5.4150000000E+03  1.8547063984E+00  7.1137531650E+00  2.0003455979E-02  1.9735114032E-02  3.3208314777E-01
  5.4200000000E+03  1.8565644521E+00  7.1106337512E+00  2.0056090665E-02  1.9786531328E-02  3.3232077934E-01
  5.4250000000E+03  1.8584226513E+00  7.1075252091E+00  2.0108814392E-02  1.9838033266E-02  3.3255824237E-01
  5.4300000000E+03  1.8602809960E+00  7.1044208878E+00  2.0161627226E-02  1.9889619849E-02  3.3279553731E-01
  5.4350000000E+03  1.8621394860E+00  7.1013207777E+00  2.0214529234E-02  1.9941291130E-02  3.3303266459E-01
  5.4400000000E+03  1.8639981212E+00  7.0982248692E+00  2.0267520482E-02  1.9993047163E-02  3.3326962464E-01
  5.4450000000E+03  1.8658569015E+00  7.0951331527E+00  2.0320601036E-02  2.0044888003E-02  3.3350641790E-01
  5.4500000000E+03  1.8677591810E+00  7.0920456187E+00  2.0373770964E-02  2.0096818723E-02  3.3374304479E-01
  5.4550000000E+03  1.8696619146E+00  7.0889622577E+00  2.0427030330E-02  2.0148834425E-02  3.3397950574E-01
  5.4600000000E+03  1.8715648408E+00  7.0858830603E+00  2.0480379203E-02  2.0200935131E-02  3.3421580119E-01
  5.4650000000E+03  1.8734679592E+00  7.0828080171E+00  2.0533817647E-02  2.0253120897E-02  3.3445193155E-01
  5.4700000000E+03  1.8753712698E+00  7.0797371186E+00  2.0587345729E-02  2.0305391777E-02  3.3468789727E-01
  5.4750000000E+03  1.8772747725E+00  7.0766703555E+00  2.0640963517E-02  2.0357747823E-02  3.3492369875E-01
  5.4800000000E+03  1.8791784669E+00  7.0736077185E+00  2.0694671075E-02  2.0410189089E-02  3.3515933643E-01
  5.4850000000E+03  1.8810823531E+00  7.0705491982E+00  2.0748468470E-02  2.0462715630E-02  3.3539481074E-01
  5.4900000000E+03  1.8829864308E+00  7.0674947853E+00  2.0802355768E-02  2.0515327499E-02  3.3563012208E-01
  5.4950000000E+03  1.8848906998E+00  7.0644444706E+00  2.0856333037E-02  2.0568024750E-02  3.3586527089E-01
  5.5000000000E+03  1.8867963152E+00  7.0613982450E+00  2.0910400341E-02  2.0620807574E-02  3.3610025758E-01
  5.5050000000E+03  1.8887022262E+00  7.0583807114E+00  2.0964802851E-02  2.0673914460E-02  3.3633508257E-01
  5.5100000000E+03  1.8906083295E+00  7.0553975996E+00  2.1019296561E-02  2.0727108132E-02  3.3656974628E-01
  5.5150000000E+03  1.8925146250E+00  7.0524184527E+00  2.1073881537E-02  2.0780388385E-02  3.3680424912E-01
  5.5200000000E+03  1.8944211124E+00  7.0494432617E+00  2.1128557848E-02  2.0833755272E-02  3.3703859152E-01
  5.5250000000E+03  1.8963277917E+00  7.0464720179E+00  2.1183325562E-02  2.0887208850E-02  3.3727277388E-01
  5.5300000000E+03  1.8982346627E+00  7.0435047123E+00  2.1238184746E-02  2.0940749174E-02  3.3750679663E-01
  5.5350000000E+03  1.9001417252E+00  7.0405413364E+00  2.1293135469E-02  2.0994376297E-02  3.3774066016E-01
  5.5400000000E+03  1.9020489791E+00  7.0375818812E+00  2.1348177798E-02  2.1048090275E-02  3.3797436490E-01
  5.5450000000E+03  1.9039564243E+00  7.0346263382E+00  2.1403311801E-02  2.1101891163E-02  3.3820791125E-01
  5.5500000000E+03  1.9058720055E+00  7.0316746985E+00  2.1458537546E-02  2.1155779994E-02  3.3844129962E-01
  5.5550000000E+03  1.9077904645E+00  7.0287269536E+00  2.1513855101E-02  2.1209756183E-02  3.3867453043E-01
  5.5600000000E+03  1.9097091261E+00  7.0257830948E+00  2.1569264534E-02  2.1263819455E-02  3.3890760407E-01
  5.5650000000E+03  1.9116279900E+00  7.0228431135E+00  2.1624765913E-02  2.1317969865E-02  3.3914052095E-01
  5.5700000000E+03  1.9135470561E+00  7.0199070010E+00  2.1680359304E-02  2.1372207468E-02  3.3937328149E-01
  5.5750000000E+03  1.9154663242E+00  7.0169747490E+00  2.1736044777E-02  2.1426532318E-02  3.3960588608E-01
  5.5800000000E+03  1.9173857942E+00  7.0140463487E+00  2.1791822399E-02  2.1480944470E-02  3.3983833513E-01
  5.5850000000E+03  1.9193054660E+00  7.0111217917E+00  2.1847692237E-02  2.1535443978E-02  3.4007062903E-01
  5.5900000000E+03  1.9212253392E+00  7.0082010696E+00  2.1903654359E-02  2.1590030898E-02  3.4030276820E-01
  5.5950000000E+03  1.9231454139E+00  7.0053226722E+00  2.1959708834E-02  2.1644705649E-02  3.4053475303E-01
  5.6000000000E+03  1.9250722037E+00  7.0024622664E+00  2.2015855728E-02  2.1699468889E-02  3.4076658391E-01
  5.6050000000E+03  1.9270061502E+00  6.9996055798E+00  2.2072095110E-02  2.1754320599E-02  3.4099826126E-01
  5.6100000000E+03  1.9289403126E+00  6.9967526042E+00  2.2128427047E-02  2.1809259955E-02  3.4122978546E-01
  5.6150000000E+03  1.9308746907E+00  6.9939033316E+00  2.2184851607E-02  2.1864287011E-02  3.4146115691E-01
  5.6200000000E+03  1.9328092842E+00  6.9910577538E+00  2.2241368857E-02  2.1919401822E-02  3.4169237601E-01
  5.6250000000E+03  1.9347440931E+00  6.9882158627E+00  2.2297978865E-02  2.1974604441E-02  3.4192344314E-01
  5.6300000000E+03  1.9366791171E+00  6.9853776503E+00  2.2354681699E-02  2.2029894923E-02  3.4215435876E-01
  5.6350000000E+03  1.9386143561E+00  6.9825431086E+00  2.2411477426E-02  2.2085273322E-02  3.4238512348E-01
  5.6400000000E+03  1.9405498100E+00  6.9797122296E+00  2.2468366114E-02  2.2140739693E-02  3.4261573776E-01
  5.6450000000E+03  1.9424854785E+00  6.9768850053E+00  2.2525347831E-02  2.2196294089E-02  3.4284620201E-01
  5.6500000000E+03  1.9444213817E+00  6.9740614278E+00  2.2582422643E-02  2.2251936567E-02  3.4307651667E-01
  5.6550000000E+03  1.9463576393E+00  6.9712414891E+00  2.2639590620E-02  2.2307667197E-02  3.4330668217E-01
  5.6600000000E+03  1.9482941112E+00  6.9684251813E+00  2.2696851827E-02  2.2363486014E-02  3.4353669892E-01
  5.6650000000E+03  1.9502307973E+00  6.9656124966E+00  2.2754206333E-02  2.2419393073E-02  3.4376656735E-01
  5.6700000000E+03  1.9521676974E+00  6.9628034271E+00  2.2811654205E-02  2.2475388428E-02  3.4399628788E-01
  5.6750000000E+03  1.9541048113E+00  6.9599979650E+00  2.2869195511E-02  2.2531472132E-02  3.4422586094E-01
  5.6800000000E+03  1.9560421389E+00  6.9571961025E+00  2.2926830318E-02  2.2587644239E-02  3.4445528693E-01
  5.6850000000E+03  1.9579796801E+00  6.9544345690E+00  2.2984558693E-02  2.2643905193E-02  3.4468456628E-01
  5.6900000000E+03  1.9599174346E+00  6.9516903285E+00  2.3042380705E-02  2.2700254808E-02  3.4491369941E-01
  5.6950000000E+03  1.9618554022E+00  6.9489495798E+00  2.3100296420E-02  2.2756692993E-02  3.4514268673E-01
  5.7000000000E+03  1.9637935829E+00  6.9462123155E+00  2.3158305906E-02  2.2813219801E-02  3.4537152866E-01
  5.7050000000E+03  1.9657318099E+00  6.9434785280E+00  2.3216409231E-02  2.2869835264E-02  3.4560022561E-01
  5.7100000000E+03  1.9676701680E+00  6.9407482100E+00  2.3274606461E-02  2.2926539447E-02  3.4582877799E-01
  5.7150000000E+03  1.9696087384E+00  6.9380213539E+00  2.3332897664E-02  2.2983332414E-02  3.4605718622E-01
  5.7200000000E+03  1.9715475209E+00  6.9352979524E+00  2.3391282908E-02  2.3040214218E-02  3.4628545071E-01
  5.7250000000E+03  1.9734865153E+00  6.9325779981E+00  2.3449762260E-02  2.3097184914E-02  3.4651357186E-01
  5.7300000000E+03  1.9754257215E+00  6.9298614836E+00  2.3508335786E-02  2.3154244554E-02  3.4674155009E-01
  5.7350000000E+03  1.9773651393E+00  6.9271484016E+00  2.3567003556E-02  2.3211393192E-02  3.4696938579E-01
  5.7400000000E+03  1.9793047686E+00  6.9244387447E+00  2.3625765635E-02  2.3268630882E-02  3.4719707939E-01
  5.7450000000E+03  1.9812446091E+00  6.9217325056E+00  2.3684622091E-02  2.3325957676E-02  3.4742463128E-01
  5.7500000000E+03  1.9831846608E+00  6.9190296772E+00  2.3743572992E-02  2.3383373629E-02  3.4765204187E-01
  5.7550000000E+03  1.9851253908E+00  6.9163302520E+00  2.3802618405E-02  2.3440878858E-02  3.4787931156E-01
  5.7600000000E+03  1.9870697608E+00  6.9136342228E+00  2.3861758396E-02  2.3498473832E-02  3.4810644075E-01
  5.7650000000E+03  1.9890143458E+00  6.9109415826E+00  2.3920993034E-02  2.3556158127E-02  3.4833342985E-01
  5.7700000000E+03  1.9909591455E+00  6.9082523240E+00  2.3980322385E-02  2.3613931797E-02  3.4856027925E-01
  5.7750000000E+03  1.9929041597E+00  6.9055874733E+00  2.4039746517E-02  2.3671795143E-02  3.4878698936E-01
  5.7800000000E+03  1.9948493883E+00  6.9029532805E+00  2.4099265497E-02  2.3729748294E-02  3.4901356057E-01
  5.7850000000E+03  1.9967948312E+00  6.9003223689E+00  2.4158879392E-02  2.3787790985E-02  3.4923999328E-01
  5.7900000000E+03  1.9987404881E+00  6.8976947317E+00  2.4218588269E-02  2.3845923269E-02  3.4946628788E-01
  5.7950000000E+03  2.0006863589E+00  6.8950703619E+00  2.4278392195E-02  2.3904145198E-02  3.4969244478E-01
  5.8000000000E+03  2.0026324435E+00  6.8924492527E+00  2.4338291238E-02  2.3962456825E-02  3.4991846437E-01
  5.8050000000E+03  2.0045787417E+00  6.8898313972E+00  2.4398285465E-02  2.4020858205E-02  3.5014434703E-01
  5.8100000000E+03  2.0065254105E+00  6.8872167885E+00  2.4458374943E-02  2.4079349411E-02  3.5037009316E-01
  5.8150000000E+03  2.0084724687E+00  6.8846054200E+00  2.4518559738E-02  2.4137930500E-02  3.5059570316E-01
  5.8200000000E+03  2.0104197404E+00  6.8819972846E+00  2.4578839919E-02  2.4196601499E-02  3.5082117741E-01
  5.8250000000E+03  2.0123672254E+00  6.8793923758E+00  2.4639215552E-02  2.4255362461E-02  3.5104651631E-01
  5.8300000000E+03  2.0143149236E+00  6.8767906867E+00  2.4699686704E-02  2.4314213439E-02  3.5127172024E-01
  5.8350000000E+03  2.0162628347E+00  6.8741922106E+00  2.4760253442E-02  2.4373154485E-02  3.5149678958E-01
  5.8400000000E+03  2.0182109587E+00  6.8715969408E+00  2.4820915834E-02  2.4432185653E-02  3.5172172473E-01
  5.8450000000E+03  2.0201592953E+00  6.8690048706E+00  2.4881673945E-02  2.4491306994E-02  3.5194652607E-01
  5.8500000000E+03  2.0221078444E+00  6.8664159932E+00  2.4942527845E-02  2.4550518561E-02  3.5217119399E-01
  5.8550000000E+03  2.0240566059E+00  6.8638303022E+00  2.5003477598E-02  2.4609820407E-02  3.5239572887E-01
  5.8600000000E+03  2.0260055796E+00  6.8612477907E+00  2.5064523273E-02  2.4669212585E-02  3.5262013109E-01
  5.8650000000E+03  2.0279542811E+00  6.8586684522E+00  2.5125664936E-02  2.4728695073E-02  3.5284440104E-01
  5.8700000000E+03  2.0299030092E+00  6.8561315278E+00  2.5186902655E-02  2.4788268483E-02  3.5306853910E-01
  5.8750000000E+03  2.0318519483E+00  6.8536047398E+00  2.5248236495E-02  2.4847932479E-02  3.5329254564E-01
  5.8800000000E+03  2.0338010983E+00  6.8510810313E+00  2.5309666525E-02  2.4907687020E-02  3.5351642104E-01
  5.8850000000E+03  2.0357504589E+00  6.8485603961E+00  2.5371192811E-02  2.4967532159E-02  3.5374016569E-01
  5.8900000000E+03  2.0377000301E+00  6.8460428277E+00  2.5432815420E-02  2.5027467948E-02  3.5396377996E-01
  5.8950000000E+03  2.0396498117E+00  6.8435283199E+00  2.5494534419E-02  2.5087494440E-02  3.5418726424E-01
  5.9000000000E+03  2.0415998035E+00  6.8410168663E+00  2.5556349875E-02  2.5147611687E-02  3.5441061888E-01
  5.9050000000E+03  2.0435500054E+00  6.8385084606E+00  2.5618261854E-02  2.5207819741E-02  3.5463384427E-01
  5.9100000000E+03  2.0455004172E+00  6.8360030966E+00  2.5680270424E-02  2.5268118654E-02  3.5485694079E-01
  5.9150000000E+03  2.0474510387E+00  6.8335007680E+00  2.5742375651E-02  2.5328508478E-02  3.5507990881E-01
  5.9200000000E+03  2.0494032707E+00  6.8310014686E+00  2.5804577602E-02  2.5388989480E-02  3.5530274869E-01
  5.9250000000E+03  2.0513559120E+00  6.8285051921E+00  2.5866876344E-02  2.5449561529E-02  3.5552546081E-01
  5.9300000000E+03  2.0533087643E+00  6.8260119324E+00  2.5929271944E-02  2.5510224648E-02  3.5574804554E-01
  5.9350000000E+03  2.0552618274E+00  6.8235216832E+00  2.5991764469E-02  2.5570978886E-02  3.5597050326E-01
  5.9400000000E+03  2.0572151012E+00  6.8210344384E+00  2.6054353985E-02  2.5631824298E-02  3.5619283432E-01
  5.9450000000E+03  2.0591685855E+00  6.8185501919E+00  2.6117040559E-02  2.5692760933E-02  3.5641503910E-01
  5.9500000000E+03  2.0611222802E+00  6.8160689375E+00  2.6179824258E-02  2.5753788845E-02  3.5663711797E-01
  5.9550000000E+03  2.0630761851E+00  6.8135906690E+00  2.6242705149E-02  2.5814908085E-02  3.5685907129E-01
  5.9600000000E+03  2.0650303000E+00  6.8111153805E+00  2.6305683298E-02  2.5876118704E-02  3.5708089942E-01
  5.9650000000E+03  2.0669846249E+00  6.8086856591E+00  2.6368758771E-02  2.5937421373E-02  3.5730260273E-01
  5.9700000000E+03  2.0689391596E+00  6.8062605356E+00  2.6431931637E-02  2.5998815555E-02  3.5752418160E-01
  5.9750000000E+03  2.0709125439E+00  6.8038383050E+00  2.6495201961E-02  2.6060304229E-02  3.5774563637E-01
  5.9800000000E+03  2.0728875613E+00  6.8014189616E+00  2.6558569810E-02  2.6121884739E-02  3.5796696741E-01
  5.9850000000E+03  2.0748628091E+00  6.7990024993E+00  2.6622035251E-02  2.6183556913E-02  3.5818817508E-01
  5.9900000000E+03  2.0768382874E+00  6.7965889124E+00  2.6685598350E-02  2.6245320805E-02  3.5840925975E-01
  5.9950000000E+03  2.0788139959E+00  6.7941781951E+00  2.6749259175E-02  2.6307176464E-02  3.5863022177E-01
  6.0000000000E+03  2.0807899344E+00  6.7917703416E+00  2.6813017791E-02  2.6369123943E-02  3.5885106150E-01
  6.0050000000E+03  2.0827661027E+00  6.7893653461E+00  2.6877445099E-02  2.6431715352E-02  3.5907177930E-01
  6.0100000000E+03  2.0847425008E+00  6.7869632027E+00  2.6941972625E-02  2.6494400836E-02  3.5929237553E-01
  6.0150000000E+03  2.0867191285E+00  6.7845639059E+00  2.7006600440E-02  2.6557180451E-02  3.5951285055E-01
  6.0200000000E+03  2.0886959855E+00  6.7821674497E+00  2.7071328612E-02  2.6620054251E-02  3.5973320471E-01
  6.0250000000E+03  2.0906730717E+00  6.7797738286E+00  2.7136157214E-02  2.6683022291E-02  3.5995343837E-01
  6.0300000000E+03  2.0926547175E+00  6.7773830368E+00  2.7201086315E-02  2.6746085332E-02  3.6017355187E-01
  6.0350000000E+03  2.0946371876E+00  6.7749950686E+00  2.7266115986E-02  2.6809242824E-02  3.6039354558E-01
  6.0400000000E+03  2.0966198916E+00  6.7726099184E+00  2.7331246297E-02  2.6872494725E-02  3.6061341985E-01
  6.0450000000E+03  2.0986028294E+00  6.7702275805E+00  2.7396477319E-02  2.6935841088E-02  3.6083317503E-01
  6.0500000000E+03  2.1005860009E+00  6.7678480492E+00  2.7461809122E-02  2.6999281969E-02  3.6105281148E-01
  6.0550000000E+03  2.1025694058E+00  6.7654713190E+00  2.7527241776E-02  2.7062817422E-02  3.6127232953E-01
  6.0600000000E+03  2.1045530440E+00  6.7631300698E+00  2.7592775352E-02  2.7126448027E-02  3.6149172955E-01
  6.0650000000E+03  2.1065369153E+00  6.7608012355E+00  2.7658409920E-02  2.7190173473E-02  3.6171101188E-01
  6.0700000000E+03  2.1085210196E+00  6.7584751212E+00  2.7724145550E-02  2.7253993661E-02  3.6193017687E-01
  6.0750000000E+03  2.1105053567E+00  6.7561517216E+00  2.7789982313E-02  2.7317908643E-02  3.6214922486E-01
  6.0800000000E+03  2.1124899264E+00  6.7538310311E+00  2.7855920279E-02  2.7381918475E-02  3.6236815622E-01
  6.0850000000E+03  2.1144986409E+00  6.7515130445E+00  2.7921959519E-02  2.7446027239E-02  3.6258697127E-01
  6.0900000000E+03  2.1165164622E+00  6.7491977564E+00  2.7988100102E-02  2.7510232483E-02  3.6280567038E-01
  6.0950000000E+03  2.1185345507E+00  6.7468851614E+00  2.8054342098E-02  2.7574532775E-02  3.6302425387E-01
  6.1000000000E+03  2.1205529062E+00  6.7445752542E+00  2.8120685579E-02  2.7638928170E-02  3.6324272210E-01
  6.1050000000E+03  2.1225715285E+00  6.7422680294E+00  2.8187130615E-02  2.7703418721E-02  3.6346107542E-01
  6.1100000000E+03  2.1245904176E+00  6.7399634818E+00  2.8253677275E-02  2.7768004483E-02  3.6367931415E-01
  6.1150000000E+03  2.1266095731E+00  6.7376616060E+00  2.8320325630E-02  2.7832685510E-02  3.6389743866E-01
  6.1200000000E+03  2.1286289948E+00  6.7353623968E+00  2.8387075750E-02  2.7897461856E-02  3.6411544927E-01
  6.1250000000E+03  2.1306486827E+00  6.7330658489E+00  2.8453927705E-02  2.7962333574E-02  3.6433334632E-01
  6.1300000000E+03  2.1326686365E+00  6.7307719571E+00  2.8520881565E-02  2.8027300719E-02  3.6455113017E-01
  6.1350000000E+03  2.1346888561E+00  6.7284807161E+00  2.8587937402E-02  2.8092363345E-02  3.6476880114E-01
  6.1400000000E+03  2.1367092543E+00  6.7261921207E+00  2.8655095284E-02  2.8157521490E-02  3.6498635958E-01
  6.1450000000E+03  2.1387298219E+00  6.7239061657E+00  2.8722355282E-02  2.8222775206E-02  3.6520380583E-01
  6.1500000000E+03  2.1407506546E+00  6.7216228459E+00  2.8789717466E-02  2.8288124564E-02  3.6542114021E-01
  6.1550000000E+03  2.1427717521E+00  6.7193531912E+00  2.8857181906E-02  2.8353569814E-02  3.6563836308E-01
  6.1600000000E+03  2.1447931143E+00  6.7171156067E+00  2.8924748673E-02  2.8419111341E-02  3.6585547476E-01
  6.1650000000E+03  2.1468147409E+00  6.7148805820E+00  2.8992417836E-02  2.8484748678E-02  3.6607247559E-01
  6.1700000000E+03  2.1488366318E+00  6.7126481120E+00  2.9060189465E-02  2.8550481878E-02  3.6628936590E-01
  6.1750000000E+03  2.1508587868E+00  6.7104181916E+00  2.9128063632E-02  2.8616310995E-02  3.6650614604E-01
  6.1800000000E+03  2.1528812057E+00  6.7081908161E+00  2.9196040405E-02  2.8682236081E-02  3.6672281633E-01
  6.1850000000E+03  2.1549038883E+00  6.7059659803E+00  2.9264119854E-02  2.8748257191E-02  3.6693937710E-01
  6.1900000000E+03  2.1569268346E+00  6.7037436793E+00  2.9332302051E-02  2.8814374377E-02  3.6715582869E-01
  6.1950000000E+03  2.1589499725E+00  6.7015239083E+00  2.9400587064E-02  2.8880587682E-02  3.6737217143E-01
  6.2000000000E+03  2.1609728374E+00  6.6993066623E+00  2.9468974965E-02  2.8946897073E-02  3.6758840565E-01
  6.2050000000E+03  2.1629959647E+00  6.6970919363E+00  2.9537465822E-02  2.9013302701E-02  3.6780453169E-01
  6.2100000000E+03  2.1650193542E+00  6.6948797255E+00  2.9606059706E-02  2.9079804618E-02  3.6802054986E-01
  6.2150000000E+03  2.1670430058E+00  6.6926700251E+00  2.9674756687E-02  2.9146402879E-02  3.6823646050E-01
  6.2200000000E+03  2.1690669191E+00  6.6904628301E+00  2.9743556835E-02  2.9213097535E-02  3.6845226394E-01
  6.2250000000E+03  2.1710910942E+00  6.6882581357E+00  2.9812460220E-02  2.9279888640E-02  3.6866796051E-01
  6.2300000000E+03  2.1731155308E+00  6.6860559371E+00  2.9881466911E-02  2.9346776248E-02  3.6888355053E-01
  6.2350000000E+03  2.1751402286E+00  6.6838562294E+00  2.9950576980E-02  2.9413760411E-02  3.6909903433E-01
  6.2400000000E+03  2.1771651877E+00  6.6816590078E+00  3.0019790495E-02  2.9480841183E-02  3.6931441224E-01
  6.2450000000E+03  2.1791904076E+00  6.6794642675E+00  3.0089107526E-02  2.9548018615E-02  3.6952968458E-01
  6.2500000000E+03  2.1812158884E+00  6.6772720038E+00  3.0158528144E-02  2.9615292763E-02  3.6974485168E-01
  6.2550000000E+03  2.1832414100E+00  6.6750999939E+00  3.0228052419E-02  2.9682663988E-02  3.6995991386E-01
  6.2600000000E+03  2.1852670755E+00  6.6729513431E+00  3.0297680419E-02  2.9750132431E-02  3.7017487144E-01
  6.2650000000E+03  2.1872930009E+00  6.6708050987E+00  3.0367412216E-02  2.9817697754E-02  3.7038972475E-01
  6.2700000000E+03  2.1893191860E+00  6.6686612559E+00  3.0437247879E-02  2.9885360008E-02  3.7060447411E-01
  6.2750000000E+03  2.1913456308E+00  6.6665198102E+00  3.0507187478E-02  2.9953119248E-02  3.7081911984E-01
  6.2800000000E+03  2.1933723348E+00  6.6643807570E+00  3.0577231083E-02  3.0020975525E-02  3.7103366227E-01
  6.2850000000E+03  2.1953992982E+00  6.6622440917E+00  3.0647378763E-02  3.0088928894E-02  3.7124810171E-01
  6.2900000000E+03  2.1974265205E+00  6.6601098098E+00  3.0717630589E-02  3.0156979405E-02  3.7146243848E-01
  6.2950000000E+03  2.1994540018E+00  6.6579779067E+00  3.0787986629E-02  3.0225127112E-02  3.7167667291E-01
  6.3000000000E+03  2.2014817417E+00  6.6558483778E+00  3.0858446955E-02  3.0293372067E-02  3.7189080531E-01
  6.3050000000E+03  2.2035097401E+00  6.6537212187E+00  3.0929011636E-02  3.0361714324E-02  3.7210483601E-01
  6.3100000000E+03  2.2055378935E+00  6.6515964248E+00  3.0999680741E-02  3.0430153914E-02  3.7231876532E-01
  6.3150000000E+03  2.2075652045E+00  6.6494739917E+00  3.1070454340E-02  3.0498690700E-02  3.7253259355E-01
  6.3200000000E+03  2.2095927722E+00  6.6473539148E+00  3.1141332504E-02  3.0567324942E-02  3.7274632103E-01
  6.3250000000E+03  2.2116205965E+00  6.6452361896E+00  3.1212315301E-02  3.0636056694E-02  3.7295994807E-01
  6.3300000000E+03  2.2136486773E+00  6.6431208118E+00  3.1283402802E-02  3.0704886008E-02  3.7317347498E-01
  6.3350000000E+03  2.2156770143E+00  6.6410077768E+00  3.1354595076E-02  3.0773812935E-02  3.7338690209E-01
  6.3400000000E+03  2.2177056073E+00  6.6388970802E+00  3.1425892193E-02  3.0842837528E-02  3.7360022970E-01
  6.3450000000E+03  2.2197344563E+00  6.6367887175E+00  3.1497294222E-02  3.0911959840E-02  3.7381345814E-01
  6.3500000000E+03  2.2217635610E+00  6.6346826845E+00  3.1568801234E-02  3.0981179922E-02  3.7402658771E-01
