#[MATERIAL DEFINITION FOR MC-GPU: interaction mean free path and sampling data from PENELOPE 2018]
#[MATERIAL NAME]
# spleen                                                        
#[NOMINAL DENSITY (g/cm^3)]
#   1.04000000
#[NUMBER OF DATA VALUES]
#  23002
#[MEAN FREE PATHS (cm) (ie, average distance between interactions)]
#[Energy (eV)     | Rayleigh        | Compton         | Photoelectric   | TOTAL (+pair prod) (cm) | Rayleigh: max cumul prob F^2]
  5.0000000000E+03  1.7269586931E+00  8.2450563434E+00  2.3541611144E-02  2.3159774283E-02  3.4800093886E-01
  5.0050000000E+03  1.7290037279E+00  8.2398206103E+00  2.3612572495E-02  2.3228776971E-02  3.4826275455E-01
  5.0100000000E+03  1.7310491388E+00  8.2345934249E+00  2.3683676324E-02  2.3297913917E-02  3.4852426266E-01
  5.0150000000E+03  1.7330965444E+00  8.2293747648E+00  2.3754922774E-02  2.3367185532E-02  3.4878546384E-01
  5.0200000000E+03  1.7351452956E+00  8.2241646074E+00  2.3826311988E-02  2.3436591815E-02  3.4904635872E-01
  5.0250000000E+03  1.7371944255E+00  8.2189629306E+00  2.3897844108E-02  2.3506132708E-02  3.4930694795E-01
  5.0300000000E+03  1.7392439337E+00  8.2137697121E+00  2.3969519276E-02  2.3575808325E-02  3.4956723216E-01
  5.0350000000E+03  1.7412938201E+00  8.2085849298E+00  2.4041337637E-02  2.3645618781E-02  3.4982721199E-01
  5.0400000000E+03  1.7433440843E+00  8.2034085616E+00  2.4113299332E-02  2.3715564192E-02  3.5008688807E-01
  5.0450000000E+03  1.7453947259E+00  8.1982405855E+00  2.4185404503E-02  2.3785644673E-02  3.5034626102E-01
  5.0500000000E+03  1.7474457447E+00  8.1930809797E+00  2.4257653294E-02  2.3855860339E-02  3.5060533149E-01
  5.0550000000E+03  1.7494971404E+00  8.1879297222E+00  2.4330045847E-02  2.3926211306E-02  3.5086410009E-01
  5.0600000000E+03  1.7515490109E+00  8.1827867914E+00  2.4402582305E-02  2.3996697706E-02  3.5112256746E-01
  5.0650000000E+03  1.7536014402E+00  8.1776521656E+00  2.4475262811E-02  2.4067319670E-02  3.5138073420E-01
  5.0700000000E+03  1.7556542459E+00  8.1725258232E+00  2.4548087506E-02  2.4138077279E-02  3.5163860095E-01
  5.0750000000E+03  1.7577074276E+00  8.1674077427E+00  2.4621056534E-02  2.4208970649E-02  3.5189616832E-01
  5.0800000000E+03  1.7597609851E+00  8.1622979026E+00  2.4694170037E-02  2.4279999893E-02  3.5215343693E-01
  5.0850000000E+03  1.7618149180E+00  8.1572842202E+00  2.4767428158E-02  2.4351165910E-02  3.5241040740E-01
  5.0900000000E+03  1.7638692260E+00  8.1522870668E+00  2.4840831039E-02  2.4422468117E-02  3.5266708033E-01
  5.0950000000E+03  1.7659239089E+00  8.1472978765E+00  2.4914378824E-02  2.4493906552E-02  3.5292345634E-01
  5.1000000000E+03  1.7679789663E+00  8.1423166289E+00  2.4988071654E-02  2.4565481330E-02  3.5317953603E-01
  5.1050000000E+03  1.7700343980E+00  8.1373433036E+00  2.5061909673E-02  2.4637192566E-02  3.5343532002E-01
  5.1100000000E+03  1.7720908137E+00  8.1323778801E+00  2.5135893022E-02  2.4709040493E-02  3.5369080890E-01
  5.1150000000E+03  1.7741476100E+00  8.1274203382E+00  2.5210021845E-02  2.4781025108E-02  3.5394600329E-01
  5.1200000000E+03  1.7762047806E+00  8.1224706578E+00  2.5284296285E-02  2.4853146524E-02  3.5420090378E-01
  5.1250000000E+03  1.7782623250E+00  8.1175288187E+00  2.5358716483E-02  2.4925404855E-02  3.5445551097E-01
  5.1300000000E+03  1.7803202430E+00  8.1125948009E+00  2.5433282583E-02  2.4997800216E-02  3.5470982546E-01
  5.1350000000E+03  1.7823785342E+00  8.1076685843E+00  2.5507994726E-02  2.5070332721E-02  3.5496384785E-01
  5.1400000000E+03  1.7844371985E+00  8.1027501491E+00  2.5582853056E-02  2.5143002483E-02  3.5521757872E-01
  5.1450000000E+03  1.7864962354E+00  8.0978394754E+00  2.5657857716E-02  2.5215809616E-02  3.5547101867E-01
  5.1500000000E+03  1.7885556447E+00  8.0929365434E+00  2.5733008847E-02  2.5288754235E-02  3.5572416829E-01
  5.1550000000E+03  1.7906160913E+00  8.0880413335E+00  2.5808306593E-02  2.5361836586E-02  3.5597702817E-01
  5.1600000000E+03  1.7926774730E+00  8.0831538260E+00  2.5883751096E-02  2.5435056763E-02  3.5622959893E-01
  5.1650000000E+03  1.7947392279E+00  8.0783257302E+00  2.5959342498E-02  2.5508415285E-02  3.5648188137E-01
  5.1700000000E+03  1.7968013556E+00  8.0735468055E+00  2.6035080943E-02  2.5581912172E-02  3.5673387623E-01
  5.1750000000E+03  1.7988638559E+00  8.0687753234E+00  2.6110966572E-02  2.5655547125E-02  3.5698558419E-01
  5.1800000000E+03  1.8009267284E+00  8.0640112650E+00  2.6186999529E-02  2.5729320257E-02  3.5723700594E-01
  5.1850000000E+03  1.8029899730E+00  8.0592546117E+00  2.6263179956E-02  2.5803231683E-02  3.5748814219E-01
  5.1900000000E+03  1.8050535892E+00  8.0545053449E+00  2.6339507995E-02  2.5877281515E-02  3.5773899360E-01
  5.1950000000E+03  1.8071175768E+00  8.0497634459E+00  2.6415983790E-02  2.5951469866E-02  3.5798956088E-01
  5.2000000000E+03  1.8091819397E+00  8.0450288963E+00  2.6492607482E-02  2.6025796851E-02  3.5823984470E-01
  5.2050000000E+03  1.8112471946E+00  8.0403016776E+00  2.6569379215E-02  2.6100262689E-02  3.5848984575E-01
  5.2100000000E+03  1.8133128208E+00  8.0355817715E+00  2.6646299131E-02  2.6174867388E-02  3.5873956469E-01
  5.2150000000E+03  1.8153788179E+00  8.0308691596E+00  2.6723367372E-02  2.6249611059E-02  3.5898900222E-01
  5.2200000000E+03  1.8174451857E+00  8.0261638237E+00  2.6800584081E-02  2.6324493816E-02  3.5923815898E-01
  5.2250000000E+03  1.8195119238E+00  8.0214657456E+00  2.6877949401E-02  2.6399515771E-02  3.5948703567E-01
  5.2300000000E+03  1.8215790319E+00  8.0167749071E+00  2.6955463474E-02  2.6474677037E-02  3.5973563294E-01
  5.2350000000E+03  1.8236465099E+00  8.0120912903E+00  2.7033126444E-02  2.6549977726E-02  3.5998395146E-01
  5.2400000000E+03  1.8257143573E+00  8.0074148771E+00  2.7110938451E-02  2.6625417953E-02  3.6023199189E-01
  5.2450000000E+03  1.8277825739E+00  8.0027456495E+00  2.7188899640E-02  2.6700997828E-02  3.6047975490E-01
  5.2500000000E+03  1.8298518659E+00  7.9981678794E+00  2.7267010152E-02  2.6776718560E-02  3.6072724113E-01
  5.2550000000E+03  1.8319226521E+00  7.9936031378E+00  2.7345270130E-02  2.6852579489E-02  3.6097445125E-01
  5.2600000000E+03  1.8339938089E+00  7.9890453388E+00  2.7423679717E-02  2.6928580418E-02  3.6122138591E-01
  5.2650000000E+03  1.8360653362E+00  7.9844944653E+00  2.7502239055E-02  2.7004721461E-02  3.6146804576E-01
  5.2700000000E+03  1.8381372337E+00  7.9799505003E+00  2.7580948287E-02  2.7081002729E-02  3.6171443144E-01
  5.2750000000E+03  1.8402095011E+00  7.9754134266E+00  2.7659807555E-02  2.7157424336E-02  3.6196054361E-01
  5.2800000000E+03  1.8422821380E+00  7.9708832275E+00  2.7738817003E-02  2.7233986392E-02  3.6220638290E-01
  5.2850000000E+03  1.8443551443E+00  7.9663598858E+00  2.7817976772E-02  2.7310689011E-02  3.6245194995E-01
  5.2900000000E+03  1.8464285196E+00  7.9618433848E+00  2.7897287005E-02  2.7387532303E-02  3.6269724541E-01
  5.2950000000E+03  1.8485022636E+00  7.9573337077E+00  2.7976747844E-02  2.7464516382E-02  3.6294226991E-01
  5.3000000000E+03  1.8505763852E+00  7.9528308377E+00  2.8056359433E-02  2.7541641360E-02  3.6318702408E-01
  5.3050000000E+03  1.8526508792E+00  7.9483347582E+00  2.8136121914E-02  2.7618907349E-02  3.6343150856E-01
  5.3100000000E+03  1.8547257412E+00  7.9438454525E+00  2.8216035428E-02  2.7696314459E-02  3.6367572398E-01
  5.3150000000E+03  1.8568009709E+00  7.9393629041E+00  2.8296100120E-02  2.7773862802E-02  3.6391967095E-01
  5.3200000000E+03  1.8588765679E+00  7.9348870964E+00  2.8376316131E-02  2.7851552489E-02  3.6416335012E-01
  5.3250000000E+03  1.8609525319E+00  7.9304180130E+00  2.8456683604E-02  2.7929383633E-02  3.6440676209E-01
  5.3300000000E+03  1.8630288628E+00  7.9259595200E+00  2.8537202682E-02  2.8007356392E-02  3.6464990749E-01
  5.3350000000E+03  1.8651055601E+00  7.9215912793E+00  2.8617873506E-02  2.8085471881E-02  3.6489278695E-01
  5.3400000000E+03  1.8671826237E+00  7.9172295347E+00  2.8698696220E-02  2.8163729172E-02  3.6513540106E-01
  5.3450000000E+03  1.8692600533E+00  7.9128742706E+00  2.8779670967E-02  2.8242128377E-02  3.6537775045E-01
  5.3500000000E+03  1.8713372280E+00  7.9085254711E+00  2.8860797888E-02  2.8320669465E-02  3.6561983573E-01
  5.3550000000E+03  1.8734146762E+00  7.9041831208E+00  2.8942077126E-02  2.8399352666E-02  3.6586165751E-01
  5.3600000000E+03  1.8754924886E+00  7.8998472039E+00  2.9023508823E-02  2.8478178114E-02  3.6610321640E-01
  5.3650000000E+03  1.8775706649E+00  7.8955177051E+00  2.9105093124E-02  2.8557145918E-02  3.6634451299E-01
  5.3700000000E+03  1.8796492049E+00  7.8911946088E+00  2.9186830169E-02  2.8636256189E-02  3.6658554790E-01
  5.3750000000E+03  1.8817281082E+00  7.8868778996E+00  2.9268720101E-02  2.8715509040E-02  3.6682632172E-01
  5.3800000000E+03  1.8838073747E+00  7.8825675621E+00  2.9350763063E-02  2.8794904579E-02  3.6706683505E-01
  5.3850000000E+03  1.8858870040E+00  7.8782635811E+00  2.9432959198E-02  2.8874442918E-02  3.6730708849E-01
  5.3900000000E+03  1.8879669959E+00  7.8739659413E+00  2.9515308647E-02  2.8954124167E-02  3.6754708264E-01
  5.3950000000E+03  1.8900473500E+00  7.8696746274E+00  2.9597811554E-02  2.9033948438E-02  3.6778681808E-01
  5.4000000000E+03  1.8921290562E+00  7.8653896243E+00  2.9680468061E-02  2.9113916074E-02  3.6802629540E-01
  5.4050000000E+03  1.8942111478E+00  7.8611109169E+00  2.9763278310E-02  2.9194026959E-02  3.6826551520E-01
  5.4100000000E+03  1.8962936021E+00  7.8568384901E+00  2.9846242445E-02  2.9274281199E-02  3.6850447805E-01
  5.4150000000E+03  1.8983764188E+00  7.8525723290E+00  2.9929360607E-02  2.9354678902E-02  3.6874318455E-01
  5.4200000000E+03  1.9004595978E+00  7.8483872608E+00  3.0012632939E-02  2.9435221233E-02  3.6898163527E-01
  5.4250000000E+03  1.9025431388E+00  7.8442180982E+00  3.0096059583E-02  2.9515907399E-02  3.6921983080E-01
  5.4300000000E+03  1.9046270414E+00  7.8400549880E+00  3.0179640683E-02  2.9596737373E-02  3.6945777171E-01
  5.4350000000E+03  1.9067113054E+00  7.8358979158E+00  3.0263376380E-02  2.9677711265E-02  3.6969545858E-01
  5.4400000000E+03  1.9087959305E+00  7.8317468675E+00  3.0347266818E-02  2.9758829184E-02  3.6993289198E-01
  5.4450000000E+03  1.9108809165E+00  7.8276018287E+00  3.0431312138E-02  2.9840091242E-02  3.7017007249E-01
  5.4500000000E+03  1.9130448418E+00  7.8234627852E+00  3.0515512483E-02  2.9921516770E-02  3.7040700067E-01
  5.4550000000E+03  1.9152097045E+00  7.8193297228E+00  3.0599867995E-02  3.0003086922E-02  3.7064367709E-01
  5.4600000000E+03  1.9173750303E+00  7.8152026275E+00  3.0684378818E-02  3.0084801692E-02  3.7088010232E-01
  5.4650000000E+03  1.9195408189E+00  7.8110814852E+00  3.0769045094E-02  3.0166661189E-02  3.7111627692E-01
  5.4700000000E+03  1.9217070699E+00  7.8069662819E+00  3.0853866965E-02  3.0248665525E-02  3.7135220145E-01
  5.4750000000E+03  1.9238737829E+00  7.8028570035E+00  3.0938844573E-02  3.0330814809E-02  3.7158787648E-01
  5.4800000000E+03  1.9260409578E+00  7.7987536362E+00  3.1023978062E-02  3.0413109151E-02  3.7182330256E-01
  5.4850000000E+03  1.9282085941E+00  7.7946561660E+00  3.1109267573E-02  3.0495548661E-02  3.7205848025E-01
  5.4900000000E+03  1.9303766916E+00  7.7905645792E+00  3.1194713249E-02  3.0578133450E-02  3.7229341011E-01
  5.4950000000E+03  1.9325452498E+00  7.7864788619E+00  3.1280315233E-02  3.0660863626E-02  3.7252809267E-01
  5.5000000000E+03  1.9347181350E+00  7.7823990005E+00  3.1366073667E-02  3.0743740277E-02  3.7276252851E-01
  5.5050000000E+03  1.9368918310E+00  7.7783616007E+00  3.1452435635E-02  3.0827192553E-02  3.7299671816E-01
  5.5100000000E+03  1.9390659925E+00  7.7743751768E+00  3.1538956405E-02  3.0910793195E-02  3.7323066217E-01
  5.5150000000E+03  1.9412406192E+00  7.7703944090E+00  3.1625636126E-02  3.0994541609E-02  3.7346436109E-01
  5.5200000000E+03  1.9434157107E+00  7.7664192841E+00  3.1712474944E-02  3.1078437909E-02  3.7369781564E-01
  5.5250000000E+03  1.9455912667E+00  7.7624497891E+00  3.1799473005E-02  3.1162482207E-02  3.7393102651E-01
  5.5300000000E+03  1.9477672869E+00  7.7584859108E+00  3.1886630456E-02  3.1246674617E-02  3.7416399434E-01
  5.5350000000E+03  1.9499437710E+00  7.7545276363E+00  3.1973947445E-02  3.1331015250E-02  3.7439671978E-01
  5.5400000000E+03  1.9521207186E+00  7.7505749526E+00  3.2061424117E-02  3.1415504221E-02  3.7462920347E-01
  5.5450000000E+03  1.9542981294E+00  7.7466278467E+00  3.2149060620E-02  3.1500141642E-02  3.7486144605E-01
  5.5500000000E+03  1.9564759368E+00  7.7426863058E+00  3.2236857100E-02  3.1584927607E-02  3.7509344816E-01
  5.5550000000E+03  1.9586541845E+00  7.7387503170E+00  3.2324813704E-02  3.1669862241E-02  3.7532521043E-01
  5.5600000000E+03  1.9608328943E+00  7.7348198676E+00  3.2412930579E-02  3.1754945662E-02  3.7555673350E-01
  5.5650000000E+03  1.9630120659E+00  7.7308949446E+00  3.2501207872E-02  3.1840177983E-02  3.7578801799E-01
  5.5700000000E+03  1.9651916990E+00  7.7269755355E+00  3.2589645729E-02  3.1925559316E-02  3.7601906454E-01
  5.5750000000E+03  1.9673717934E+00  7.7230616275E+00  3.2678244297E-02  3.2011089772E-02  3.7624987377E-01
  5.5800000000E+03  1.9695523486E+00  7.7191532080E+00  3.2767003723E-02  3.2096769465E-02  3.7648044629E-01
  5.5850000000E+03  1.9717333643E+00  7.7152502644E+00  3.2855924153E-02  3.2182598506E-02  3.7671078274E-01
  5.5900000000E+03  1.9739148404E+00  7.7113527841E+00  3.2945005735E-02  3.2268577008E-02  3.7694088374E-01
  5.5950000000E+03  1.9760967763E+00  7.7075181654E+00  3.3034248614E-02  3.2354706093E-02  3.7717074988E-01
  5.6000000000E+03  1.9782790760E+00  7.7037101097E+00  3.3123652939E-02  3.2440985224E-02  3.7740038180E-01
  5.6050000000E+03  1.9804617325E+00  7.6999073314E+00  3.3213218855E-02  3.2527414138E-02  3.7762978010E-01
  5.6100000000E+03  1.9826448477E+00  7.6961098185E+00  3.3302946510E-02  3.2613992975E-02  3.7785894539E-01
  5.6150000000E+03  1.9848284213E+00  7.6923175591E+00  3.3392836050E-02  3.2700721845E-02  3.7808787827E-01
  5.6200000000E+03  1.9870124531E+00  7.6885305413E+00  3.3482887621E-02  3.2787600862E-02  3.7831657936E-01
  5.6250000000E+03  1.9891969426E+00  7.6847487531E+00  3.3573101372E-02  3.2874630135E-02  3.7854504924E-01
  5.6300000000E+03  1.9913818896E+00  7.6809721827E+00  3.3663477447E-02  3.2961809778E-02  3.7877328853E-01
  5.6350000000E+03  1.9935672938E+00  7.6772008183E+00  3.3754015995E-02  3.3049139900E-02  3.7900129782E-01
  5.6400000000E+03  1.9957531549E+00  7.6734346480E+00  3.3844717162E-02  3.3136620614E-02  3.7922907770E-01
  5.6450000000E+03  1.9979394725E+00  7.6696736601E+00  3.3935581094E-02  3.3224252031E-02  3.7945662876E-01
  5.6500000000E+03  2.0001264040E+00  7.6659178430E+00  3.4026607940E-02  3.3312034306E-02  3.7968395161E-01
  5.6550000000E+03  2.0023148856E+00  7.6621671849E+00  3.4117797844E-02  3.3399967811E-02  3.7991104682E-01
  5.6600000000E+03  2.0045038243E+00  7.6584216742E+00  3.4209150954E-02  3.3488052354E-02  3.8013791498E-01
  5.6650000000E+03  2.0066932201E+00  7.6546812993E+00  3.4300667417E-02  3.3576288047E-02  3.8036455668E-01
  5.6700000000E+03  2.0088830725E+00  7.6509460486E+00  3.4392347380E-02  3.3664675001E-02  3.8059097250E-01
  5.6750000000E+03  2.0110733812E+00  7.6472159106E+00  3.4484190988E-02  3.3753213326E-02  3.8081716301E-01
  5.6800000000E+03  2.0132641459E+00  7.6434908738E+00  3.4576198390E-02  3.3841903134E-02  3.8104312880E-01
  5.6850000000E+03  2.0154553664E+00  7.6398258192E+00  3.4668369732E-02  3.3930745617E-02  3.8126887044E-01
  5.6900000000E+03  2.0176470422E+00  7.6361863155E+00  3.4760705161E-02  3.4019740223E-02  3.8149438850E-01
  5.6950000000E+03  2.0198391732E+00  7.6325517402E+00  3.4853204822E-02  3.4108886660E-02  3.8171968355E-01
  5.7000000000E+03  2.0220317590E+00  7.6289220821E+00  3.4945868864E-02  3.4198185036E-02  3.8194475617E-01
  5.7050000000E+03  2.0242244756E+00  7.6252973304E+00  3.5038697433E-02  3.4287635371E-02  3.8216960692E-01
  5.7100000000E+03  2.0264174880E+00  7.6216774740E+00  3.5131690676E-02  3.4377237820E-02  3.8239423637E-01
  5.7150000000E+03  2.0286109536E+00  7.6180625022E+00  3.5224848739E-02  3.4466992541E-02  3.8261864507E-01
  5.7200000000E+03  2.0308048722E+00  7.6144524040E+00  3.5318171769E-02  3.4556899641E-02  3.8284283360E-01
  5.7250000000E+03  2.0329992434E+00  7.6108471687E+00  3.5411659914E-02  3.4646959233E-02  3.8306680250E-01
  5.7300000000E+03  2.0351940670E+00  7.6072467854E+00  3.5505313319E-02  3.4737171426E-02  3.8329055233E-01
  5.7350000000E+03  2.0373893427E+00  7.6036512434E+00  3.5599132132E-02  3.4827536329E-02  3.8351408365E-01
  5.7400000000E+03  2.0395850701E+00  7.6000605320E+00  3.5693116499E-02  3.4918054053E-02  3.8373739702E-01
  5.7450000000E+03  2.0417812490E+00  7.5964746405E+00  3.5787266567E-02  3.5008724708E-02  3.8396049297E-01
  5.7500000000E+03  2.0439778791E+00  7.5928935582E+00  3.5881582483E-02  3.5099548404E-02  3.8418337207E-01
  5.7550000000E+03  2.0461750920E+00  7.5893172745E+00  3.5976064394E-02  3.5190525288E-02  3.8440603485E-01
  5.7600000000E+03  2.0483737248E+00  7.5857457788E+00  3.6070712447E-02  3.5281655720E-02  3.8462848186E-01
  5.7650000000E+03  2.0505728092E+00  7.5821790606E+00  3.6165526787E-02  3.5372939523E-02  3.8485071365E-01
  5.7700000000E+03  2.0527723450E+00  7.5786171093E+00  3.6260507563E-02  3.5464376807E-02  3.8507273076E-01
  5.7750000000E+03  2.0549723318E+00  7.5750914104E+00  3.6355654921E-02  3.5555968376E-02  3.8529453371E-01
  5.7800000000E+03  2.0571727694E+00  7.5716113147E+00  3.6450969007E-02  3.5647714558E-02  3.8551612306E-01
  5.7850000000E+03  2.0593736575E+00  7.5681358249E+00  3.6546449968E-02  3.5739614566E-02  3.8573749933E-01
  5.7900000000E+03  2.0615749958E+00  7.5646649309E+00  3.6642097952E-02  3.5831668509E-02  3.8595866306E-01
  5.7950000000E+03  2.0637767839E+00  7.5611986227E+00  3.6737913104E-02  3.5923876495E-02  3.8617961478E-01
  5.8000000000E+03  2.0659790216E+00  7.5577368902E+00  3.6833895573E-02  3.6016238635E-02  3.8640035502E-01
  5.8050000000E+03  2.0681817087E+00  7.5542797236E+00  3.6930045503E-02  3.6108755036E-02  3.8662088431E-01
  5.8100000000E+03  2.0703855497E+00  7.5508271128E+00  3.7026363043E-02  3.6201426024E-02  3.8684120316E-01
  5.8150000000E+03  2.0725906294E+00  7.5473790479E+00  3.7122848340E-02  3.6294251735E-02  3.8706131212E-01
  5.8200000000E+03  2.0747961595E+00  7.5439355191E+00  3.7219501539E-02  3.6387232038E-02  3.8728121168E-01
  5.8250000000E+03  2.0770021396E+00  7.5404965165E+00  3.7316322787E-02  3.6480367042E-02  3.8750090239E-01
  5.8300000000E+03  2.0792085693E+00  7.5370620302E+00  3.7413312233E-02  3.6573656854E-02  3.8772038475E-01
  5.8350000000E+03  2.0814154485E+00  7.5336320505E+00  3.7510470021E-02  3.6667101585E-02  3.8793965928E-01
  5.8400000000E+03  2.0836227768E+00  7.5302065676E+00  3.7607796300E-02  3.6760701341E-02  3.8815872650E-01
  5.8450000000E+03  2.0858305539E+00  7.5267855718E+00  3.7705291215E-02  3.6854456232E-02  3.8837758691E-01
  5.8500000000E+03  2.0880387796E+00  7.5233690533E+00  3.7802954914E-02  3.6948366366E-02  3.8859624103E-01
  5.8550000000E+03  2.0902474535E+00  7.5199570025E+00  3.7900787543E-02  3.7042431850E-02  3.8881468930E-01
  5.8600000000E+03  2.0924565753E+00  7.5165494098E+00  3.7998789249E-02  3.7136652794E-02  3.8903293228E-01
  5.8650000000E+03  2.0946664413E+00  7.5131462654E+00  3.8096960180E-02  3.7231029398E-02  3.8925097056E-01
  5.8700000000E+03  2.0968768682E+00  7.5098064653E+00  3.8195300481E-02  3.7325563170E-02  3.8946880471E-01
  5.8750000000E+03  2.0990877427E+00  7.5064815555E+00  3.8293810300E-02  3.7420253002E-02  3.8968643530E-01
  5.8800000000E+03  2.1012990644E+00  7.5031609444E+00  3.8392489783E-02  3.7515098744E-02  3.8990386290E-01
  5.8850000000E+03  2.1035108332E+00  7.4998446229E+00  3.8491339077E-02  3.7610100503E-02  3.9012108809E-01
  5.8900000000E+03  2.1057230487E+00  7.4965325816E+00  3.8590358330E-02  3.7705258387E-02  3.9033811143E-01
  5.8950000000E+03  2.1079357106E+00  7.4932248116E+00  3.8689547687E-02  3.7800572504E-02  3.9055493349E-01
  5.9000000000E+03  2.1101488187E+00  7.4899213035E+00  3.8788907295E-02  3.7896042961E-02  3.9077155483E-01
  5.9050000000E+03  2.1123623726E+00  7.4866220485E+00  3.8888437302E-02  3.7991669866E-02  3.9098797601E-01
  5.9100000000E+03  2.1145763721E+00  7.4833270373E+00  3.8988137854E-02  3.8087453326E-02  3.9120419759E-01
  5.9150000000E+03  2.1167908169E+00  7.4800362610E+00  3.9088009098E-02  3.8183393448E-02  3.9142022013E-01
  5.9200000000E+03  2.1190072773E+00  7.4767497104E+00  3.9188051181E-02  3.8279490853E-02  3.9163604418E-01
  5.9250000000E+03  2.1212244068E+00  7.4734673768E+00  3.9288264249E-02  3.8375745211E-02  3.9185167030E-01
  5.9300000000E+03  2.1234419830E+00  7.4701892509E+00  3.9388648449E-02  3.8472156557E-02  3.9206709903E-01
  5.9350000000E+03  2.1256600055E+00  7.4669153241E+00  3.9489203929E-02  3.8568724999E-02  3.9228233093E-01
  5.9400000000E+03  2.1278784741E+00  7.4636455872E+00  3.9589930834E-02  3.8665450643E-02  3.9249736654E-01
  5.9450000000E+03  2.1300973886E+00  7.4603800315E+00  3.9690829313E-02  3.8762333597E-02  3.9271220640E-01
  5.9500000000E+03  2.1323167485E+00  7.4571186481E+00  3.9791899511E-02  3.8859373966E-02  3.9292685107E-01
  5.9550000000E+03  2.1345365536E+00  7.4538614282E+00  3.9893141575E-02  3.8956571858E-02  3.9314130107E-01
  5.9600000000E+03  2.1367568037E+00  7.4506083629E+00  3.9994555652E-02  3.9053927379E-02  3.9335555695E-01
  5.9650000000E+03  2.1389774985E+00  7.4474235257E+00  4.0096141889E-02  3.9151442407E-02  3.9356961924E-01
  5.9700000000E+03  2.1411986376E+00  7.4442452689E+00  4.0197900433E-02  3.9249115366E-02  3.9378348848E-01
  5.9750000000E+03  2.1434196998E+00  7.4410710274E+00  4.0299831431E-02  3.9346946116E-02  3.9399716521E-01
  5.9800000000E+03  2.1456411659E+00  7.4379007929E+00  4.0401935029E-02  3.9444934926E-02  3.9421064995E-01
  5.9850000000E+03  2.1478630748E+00  7.4347345569E+00  4.0504211374E-02  3.9543081915E-02  3.9442394323E-01
  5.9900000000E+03  2.1500854263E+00  7.4315723112E+00  4.0606660612E-02  3.9641387188E-02  3.9463704557E-01
  5.9950000000E+03  2.1523082201E+00  7.4284140473E+00  4.0709282892E-02  3.9739850853E-02  3.9484995751E-01
  6.0000000000E+03  2.1545314558E+00  7.4252597568E+00  4.0812078360E-02  3.9838473015E-02  3.9506267957E-01
  6.0050000000E+03  2.1567551333E+00  7.4221094316E+00  4.0915773024E-02  3.9937945363E-02  3.9527521226E-01
  6.0100000000E+03  2.1589792522E+00  7.4189630633E+00  4.1019644264E-02  4.0037579248E-02  3.9548755611E-01
  6.0150000000E+03  2.1612038122E+00  7.4158206437E+00  4.1123692231E-02  4.0137374779E-02  3.9569971163E-01
  6.0200000000E+03  2.1634288131E+00  7.4126821644E+00  4.1227917079E-02  4.0237332067E-02  3.9591167935E-01
  6.0250000000E+03  2.1656542546E+00  7.4095476175E+00  4.1332318960E-02  4.0337451221E-02  3.9612345976E-01
  6.0300000000E+03  2.1678884511E+00  7.4064169945E+00  4.1436898027E-02  4.0437735247E-02  3.9633505339E-01
  6.0350000000E+03  2.1701242325E+00  7.4032902874E+00  4.1541654432E-02  4.0538181775E-02  3.9654646075E-01
  6.0400000000E+03  2.1723604652E+00  7.4001674881E+00  4.1646588329E-02  4.0638790525E-02  3.9675768234E-01
  6.0450000000E+03  2.1745971490E+00  7.3970485884E+00  4.1751699870E-02  4.0739561606E-02  3.9696871867E-01
  6.0500000000E+03  2.1768342835E+00  7.3939335802E+00  4.1856989207E-02  4.0840495127E-02  3.9717957025E-01
  6.0550000000E+03  2.1790718686E+00  7.3908224556E+00  4.1962456494E-02  4.0941591199E-02  3.9739023757E-01
  6.0600000000E+03  2.1813099039E+00  7.3877644458E+00  4.2068101882E-02  4.1042851451E-02  3.9760072114E-01
  6.0650000000E+03  2.1835483892E+00  7.3847247955E+00  4.2173925526E-02  4.1144274941E-02  3.9781102146E-01
  6.0700000000E+03  2.1857873241E+00  7.3816888993E+00  4.2279927577E-02  4.1245861330E-02  3.9802113902E-01
  6.0750000000E+03  2.1880267084E+00  7.3786567492E+00  4.2386108189E-02  4.1347610729E-02  3.9823107432E-01
  6.0800000000E+03  2.1902665418E+00  7.3756283377E+00  4.2492467514E-02  4.1449523246E-02  3.9844082786E-01
  6.0850000000E+03  2.1925509875E+00  7.3726036571E+00  4.2599005704E-02  4.1551614853E-02  3.9865040013E-01
  6.0900000000E+03  2.1948522814E+00  7.3695826996E+00  4.2705722913E-02  4.1653875795E-02  3.9885979161E-01
  6.0950000000E+03  2.1971540993E+00  7.3665654578E+00  4.2812619294E-02  4.1756300336E-02  3.9906900281E-01
  6.1000000000E+03  2.1994564406E+00  7.3635519239E+00  4.2919694998E-02  4.1858888585E-02  3.9927803419E-01
  6.1050000000E+03  2.2017593051E+00  7.3605420903E+00  4.3026950180E-02  4.1961640652E-02  3.9948688626E-01
  6.1100000000E+03  2.2040626926E+00  7.3575359496E+00  4.3134384991E-02  4.2064556647E-02  3.9969555948E-01
  6.1150000000E+03  2.2063666026E+00  7.3545334941E+00  4.3241999584E-02  4.2167636680E-02  3.9990405436E-01
  6.1200000000E+03  2.2086710349E+00  7.3515347164E+00  4.3349794112E-02  4.2270880859E-02  4.0011237136E-01
  6.1250000000E+03  2.2109759892E+00  7.3485396088E+00  4.3457768729E-02  4.2374289295E-02  4.0032051096E-01
  6.1300000000E+03  2.2132814652E+00  7.3455481640E+00  4.3565923586E-02  4.2477862096E-02  4.0052847365E-01
  6.1350000000E+03  2.2155874625E+00  7.3425603745E+00  4.3674258836E-02  4.2581599372E-02  4.0073625989E-01
  6.1400000000E+03  2.2178941990E+00  7.3395762328E+00  4.3782774633E-02  4.2685501313E-02  4.0094387016E-01
  6.1450000000E+03  2.2202016969E+00  7.3365957316E+00  4.3891471128E-02  4.2789568037E-02  4.0115130494E-01
  6.1500000000E+03  2.2225097159E+00  7.3336188633E+00  4.4000348476E-02  4.2893799565E-02  4.0135856469E-01
  6.1550000000E+03  2.2248182556E+00  7.3306622504E+00  4.4109406828E-02  4.2998196577E-02  4.0156564989E-01
  6.1600000000E+03  2.2271273156E+00  7.3277536247E+00  4.4218646337E-02  4.3102760151E-02  4.0177256099E-01
  6.1650000000E+03  2.2294368958E+00  7.3248485117E+00  4.4328067157E-02  4.3207488876E-02  4.0197929848E-01
  6.1700000000E+03  2.2317469957E+00  7.3219469041E+00  4.4437669440E-02  4.3312382859E-02  4.0218586296E-01
  6.1750000000E+03  2.2340576152E+00  7.3190487950E+00  4.4547453338E-02  4.3417442211E-02  4.0239225502E-01
  6.1800000000E+03  2.2363687538E+00  7.3161541774E+00  4.4657419005E-02  4.3522667039E-02  4.0259847517E-01
  6.1850000000E+03  2.2386804113E+00  7.3132630441E+00  4.4767566594E-02  4.3628057451E-02  4.0280452390E-01
  6.1900000000E+03  2.2409925874E+00  7.3103753882E+00  4.4877896257E-02  4.3733613557E-02  4.0301040174E-01
  6.1950000000E+03  2.2433052747E+00  7.3074912027E+00  4.4988408147E-02  4.3839335462E-02  4.0321610916E-01
  6.2000000000E+03  2.2456184272E+00  7.3046104806E+00  4.5099102416E-02  4.3945223257E-02  4.0342164668E-01
  6.2050000000E+03  2.2479320973E+00  7.3017332150E+00  4.5209979219E-02  4.4051277070E-02  4.0362701479E-01
  6.2100000000E+03  2.2502462847E+00  7.2988593989E+00  4.5321038707E-02  4.4157497009E-02  4.0383221398E-01
  6.2150000000E+03  2.2525609891E+00  7.2959890255E+00  4.5432281033E-02  4.4263883181E-02  4.0403724475E-01
  6.2200000000E+03  2.2548762102E+00  7.2931220878E+00  4.5543706351E-02  4.4370435696E-02  4.0424210759E-01
  6.2250000000E+03  2.2571919477E+00  7.2902585790E+00  4.5655314812E-02  4.4477154661E-02  4.0444680299E-01
  6.2300000000E+03  2.2595082013E+00  7.2873984923E+00  4.5767106571E-02  4.4584040183E-02  4.0465133144E-01
  6.2350000000E+03  2.2618249707E+00  7.2845418207E+00  4.5879081779E-02  4.4691092370E-02  4.0485569342E-01
  6.2400000000E+03  2.2641422555E+00  7.2816885576E+00  4.5991240590E-02  4.4798311330E-02  4.0505988942E-01
  6.2450000000E+03  2.2664600556E+00  7.2788386960E+00  4.6103583156E-02  4.4905697170E-02  4.0526391993E-01
  6.2500000000E+03  2.2687783706E+00  7.2759922293E+00  4.6216109631E-02  4.5013249998E-02  4.0546778542E-01
  6.2550000000E+03  2.2710973413E+00  7.2731759584E+00  4.6328820167E-02  4.5120971009E-02  4.0567148637E-01
  6.2600000000E+03  2.2734169012E+00  7.2703945604E+00  4.6441714917E-02  4.5228860481E-02  4.0587502327E-01
  6.2650000000E+03  2.2757369754E+00  7.2676164454E+00  4.6554794033E-02  4.5336917285E-02  4.0607839659E-01
  6.2700000000E+03  2.2780575636E+00  7.2648416071E+00  4.6668057670E-02  4.5445141528E-02  4.0628160679E-01
  6.2750000000E+03  2.2803786655E+00  7.2620700388E+00  4.6781505979E-02  4.5553533317E-02  4.0648465437E-01
  6.2800000000E+03  2.2827002808E+00  7.2593017341E+00  4.6895139114E-02  4.5662092758E-02  4.0668753978E-01
  6.2850000000E+03  2.2850224091E+00  7.2565366867E+00  4.7008957227E-02  4.5770819959E-02  4.0689026351E-01
  6.2900000000E+03  2.2873450503E+00  7.2537748900E+00  4.7122960471E-02  4.5879715027E-02  4.0709282600E-01
  6.2950000000E+03  2.2896682039E+00  7.2510163377E+00  4.7237148999E-02  4.5988778067E-02  4.0729522775E-01
  6.3000000000E+03  2.2919918698E+00  7.2482610235E+00  4.7351522965E-02  4.6098009188E-02  4.0749746920E-01
  6.3050000000E+03  2.2943160475E+00  7.2455089409E+00  4.7466082520E-02  4.6207408495E-02  4.0769955082E-01
  6.3100000000E+03  2.2966406908E+00  7.2427600835E+00  4.7580827819E-02  4.6316976076E-02  4.0790147307E-01
  6.3150000000E+03  2.2989653544E+00  7.2400144451E+00  4.7695759013E-02  4.6426711856E-02  4.0810323643E-01
  6.3200000000E+03  2.3012905284E+00  7.2372720194E+00  4.7810876256E-02  4.6536616140E-02  4.0830484133E-01
  6.3250000000E+03  2.3036162125E+00  7.2345328000E+00  4.7926179700E-02  4.6646689035E-02  4.0850628824E-01
  6.3300000000E+03  2.3059424063E+00  7.2317967807E+00  4.8041669499E-02  4.6756930646E-02  4.0870757762E-01
  6.3350000000E+03  2.3082691097E+00  7.2290639552E+00  4.8157345805E-02  4.6867341080E-02  4.0890870992E-01
  6.3400000000E+03  2.3105963223E+00  7.2263343172E+00  4.8273208771E-02  4.6977920442E-02  4.0910968560E-01
  6.3450000000E+03  2.3129240438E+00  7.2236078606E+00  4.8389258551E-02  4.7088668839E-02  4.0931050510E-01
  6.3500000000E+03  2.3152522739E+00  7.2208845791E+00  4.8505495297E-02  4.7199586375E-02  4.0951116887E-01
