#[MATERIAL DEFINITION FOR MC-GPU: interaction mean free path and sampling data from PENELOPE 2018]
#[MATERIAL NAME]
# uterus_prostate                                               
#[NOMINAL DENSITY (g/cm^3)]
#   1.03000000
#[NUMBER OF DATA VALUES]
#  23002
#[MEAN FREE PATHS (cm) (ie, average distance between interactions)]
#[Energy (eV)     | Rayleigh        | Compton         | Photoelectric   | TOTAL (+pair prod) (cm) | Rayleigh: max cumul prob F^2]
  5.0000000000E+03  1.9125435295E+00  8.2334433639E+00  2.7602669031E-02  2.7120335339E-02  3.4586241900E-01
  5.0050000000E+03  1.9148029791E+00  8.2282918997E+00  2.7686224595E-02  2.7201392263E-02  3.4612163405E-01
  5.0100000000E+03  1.9170628380E+00  8.2231487975E+00  2.7769949011E-02  2.7282607419E-02  3.4638056915E-01
  5.0150000000E+03  1.9193246736E+00  8.2180140355E+00  2.7853842450E-02  2.7363981262E-02  3.4663922496E-01
  5.0200000000E+03  1.9215878573E+00  8.2128875918E+00  2.7937905084E-02  2.7445513804E-02  3.4689760211E-01
  5.0250000000E+03  1.9238514526E+00  8.2077694448E+00  2.8022137084E-02  2.7527204989E-02  3.4715570126E-01
  5.0300000000E+03  1.9261154591E+00  8.2026595727E+00  2.8106538620E-02  2.7609054954E-02  3.4741352304E-01
  5.0350000000E+03  1.9283798767E+00  8.1975579540E+00  2.8191109865E-02  2.7691063834E-02  3.4767106810E-01
  5.0400000000E+03  1.9306447048E+00  8.1924645671E+00  2.8275850990E-02  2.7773231764E-02  3.4792833708E-01
  5.0450000000E+03  1.9329099432E+00  8.1873793907E+00  2.8360762166E-02  2.7855558879E-02  3.4818533060E-01
  5.0500000000E+03  1.9351755916E+00  8.1823024033E+00  2.8445843564E-02  2.7938045315E-02  3.4844204930E-01
  5.0550000000E+03  1.9374416496E+00  8.1772335837E+00  2.8531095356E-02  2.8020691206E-02  3.4869849381E-01
  5.0600000000E+03  1.9397084303E+00  8.1721729107E+00  2.8616517713E-02  2.8103496754E-02  3.4895466477E-01
  5.0650000000E+03  1.9419762027E+00  8.1671203632E+00  2.8702110807E-02  2.8186462150E-02  3.4921056279E-01
  5.0700000000E+03  1.9442443849E+00  8.1620759202E+00  2.8787874808E-02  2.8269587408E-02  3.4946618850E-01
  5.0750000000E+03  1.9465129766E+00  8.1570395606E+00  2.8873809888E-02  2.8352872663E-02  3.4972154253E-01
  5.0800000000E+03  1.9487819775E+00  8.1520112635E+00  2.8959916218E-02  2.8436318049E-02  3.4997662549E-01
  5.0850000000E+03  1.9510513873E+00  8.1470799171E+00  2.9046193970E-02  2.8519924789E-02  3.5023143800E-01
  5.0900000000E+03  1.9533212055E+00  8.1421650165E+00  2.9132643315E-02  2.8603692049E-02  3.5048598067E-01
  5.0950000000E+03  1.9555914320E+00  8.1372579021E+00  2.9219264425E-02  2.8687619858E-02  3.5074025413E-01
  5.1000000000E+03  1.9578620663E+00  8.1323585542E+00  2.9306057470E-02  2.8771708350E-02  3.5099425898E-01
  5.1050000000E+03  1.9601331081E+00  8.1274669526E+00  2.9393022622E-02  2.8855957660E-02  3.5124799584E-01
  5.1100000000E+03  1.9624046812E+00  8.1225830777E+00  2.9480160052E-02  2.8940367947E-02  3.5150146530E-01
  5.1150000000E+03  1.9646766627E+00  8.1177069096E+00  2.9567469931E-02  2.9024939321E-02  3.5175466798E-01
  5.1200000000E+03  1.9669490509E+00  8.1128384287E+00  2.9654952432E-02  2.9109671915E-02  3.5200760447E-01
  5.1250000000E+03  1.9692218454E+00  8.1079776154E+00  2.9742607725E-02  2.9194565862E-02  3.5226027539E-01
  5.1300000000E+03  1.9714950461E+00  8.1031244502E+00  2.9830435981E-02  2.9279621297E-02  3.5251268132E-01
  5.1350000000E+03  1.9737686525E+00  8.0982789135E+00  2.9918437373E-02  2.9364838353E-02  3.5276482287E-01
  5.1400000000E+03  1.9760426643E+00  8.0934409861E+00  3.0006612070E-02  2.9450217164E-02  3.5301670063E-01
  5.1450000000E+03  1.9783170812E+00  8.0886106484E+00  3.0094960245E-02  2.9535757864E-02  3.5326831520E-01
  5.1500000000E+03  1.9805919030E+00  8.0837878814E+00  3.0183482069E-02  2.9621460585E-02  3.5351966716E-01
  5.1550000000E+03  1.9828678620E+00  8.0789726657E+00  3.0272177713E-02  2.9707325626E-02  3.5377075711E-01
  5.1600000000E+03  1.9851448459E+00  8.0741649822E+00  3.0361047349E-02  2.9793353096E-02  3.5402158568E-01
  5.1650000000E+03  1.9874222354E+00  8.0694169226E+00  3.0450091147E-02  2.9879543705E-02  3.5427215374E-01
  5.1700000000E+03  1.9897000302E+00  8.0647181727E+00  3.0539309280E-02  2.9965897458E-02  3.5452246200E-01
  5.1750000000E+03  1.9919782300E+00  8.0600266968E+00  3.0628701918E-02  3.0052413917E-02  3.5477251114E-01
  5.1800000000E+03  1.9942568344E+00  8.0553424768E+00  3.0718269234E-02  3.0139093214E-02  3.5502230182E-01
  5.1850000000E+03  1.9965358431E+00  8.0506654945E+00  3.0808011397E-02  3.0225935482E-02  3.5527183472E-01
  5.1900000000E+03  1.9988152559E+00  8.0459957316E+00  3.0897928580E-02  3.0312940855E-02  3.5552111050E-01
  5.1950000000E+03  2.0010950724E+00  8.0413331702E+00  3.0988020953E-02  3.0400109465E-02  3.5577012983E-01
  5.2000000000E+03  2.0033753010E+00  8.0366777921E+00  3.1078288689E-02  3.0487441447E-02  3.5601889337E-01
  5.2050000000E+03  2.0056570205E+00  8.0320295795E+00  3.1168731959E-02  3.0574937183E-02  3.5626740177E-01
  5.2100000000E+03  2.0079391442E+00  8.0273885144E+00  3.1259350933E-02  3.0662596556E-02  3.5651565570E-01
  5.2150000000E+03  2.0102216717E+00  8.0227545791E+00  3.1350145784E-02  3.0750419699E-02  3.5676365581E-01
  5.2200000000E+03  2.0125046028E+00  8.0181277556E+00  3.1441116682E-02  3.0838406742E-02  3.5701140275E-01
  5.2250000000E+03  2.0147879372E+00  8.0135080264E+00  3.1532263799E-02  3.0926557820E-02  3.5725889717E-01
  5.2300000000E+03  2.0170716745E+00  8.0088953737E+00  3.1623587306E-02  3.1014873063E-02  3.5750613972E-01
  5.2350000000E+03  2.0193558143E+00  8.0042897801E+00  3.1715087374E-02  3.1103352603E-02  3.5775313104E-01
  5.2400000000E+03  2.0216403565E+00  7.9996912278E+00  3.1806764176E-02  3.1191996573E-02  3.5799987177E-01
  5.2450000000E+03  2.0239253007E+00  7.9950996996E+00  3.1898617882E-02  3.1280805105E-02  3.5824636256E-01
  5.2500000000E+03  2.0262129030E+00  7.9905997777E+00  3.1990648663E-02  3.1369780174E-02  3.5849260403E-01
  5.2550000000E+03  2.0285045011E+00  7.9861127468E+00  3.2082856691E-02  3.1458921046E-02  3.5873859684E-01
  5.2600000000E+03  2.0307965079E+00  7.9816324992E+00  3.2175242138E-02  3.1548226902E-02  3.5898434160E-01
  5.2650000000E+03  2.0330889231E+00  7.9771590182E+00  3.2267805174E-02  3.1637697874E-02  3.5922983895E-01
  5.2700000000E+03  2.0353817464E+00  7.9726922872E+00  3.2360545971E-02  3.1727334092E-02  3.5947508951E-01
  5.2750000000E+03  2.0376749773E+00  7.9682322896E+00  3.2453464701E-02  3.1817135690E-02  3.5972009392E-01
  5.2800000000E+03  2.0399686157E+00  7.9637790089E+00  3.2546561534E-02  3.1907102797E-02  3.5996485280E-01
  5.2850000000E+03  2.0422626613E+00  7.9593324287E+00  3.2639836642E-02  3.1997235545E-02  3.6020936676E-01
  5.2900000000E+03  2.0445571136E+00  7.9548925325E+00  3.2733290196E-02  3.2087534066E-02  3.6045363643E-01
  5.2950000000E+03  2.0468519724E+00  7.9504593040E+00  3.2826922368E-02  3.2177998490E-02  3.6069766243E-01
  5.3000000000E+03  2.0491471022E+00  7.9460327269E+00  3.2920733329E-02  3.2268628914E-02  3.6094144535E-01
  5.3050000000E+03  2.0514425723E+00  7.9416127849E+00  3.3014723250E-02  3.2359425488E-02  3.6118498583E-01
  5.3100000000E+03  2.0537384477E+00  7.9371994619E+00  3.3108892303E-02  3.2450388356E-02  3.6142828447E-01
  5.3150000000E+03  2.0560347281E+00  7.9327927417E+00  3.3203240659E-02  3.2541517651E-02  3.6167134188E-01
  5.3200000000E+03  2.0583314132E+00  7.9283926083E+00  3.3297768489E-02  3.2632813503E-02  3.6191415866E-01
  5.3250000000E+03  2.0606285026E+00  7.9239990456E+00  3.3392475965E-02  3.2724276042E-02  3.6215673541E-01
  5.3300000000E+03  2.0629259961E+00  7.9196159199E+00  3.3487363258E-02  3.2815905465E-02  3.6239907275E-01
  5.3350000000E+03  2.0652238933E+00  7.9153228873E+00  3.3582430540E-02  3.2907703281E-02  3.6264117126E-01
  5.3400000000E+03  2.0675221939E+00  7.9110362003E+00  3.3677677981E-02  3.2999668192E-02  3.6288303154E-01
  5.3450000000E+03  2.0698208977E+00  7.9067558433E+00  3.3773105754E-02  3.3091800329E-02  3.6312465419E-01
  5.3500000000E+03  2.0721195935E+00  7.9024818013E+00  3.3868714028E-02  3.3184099715E-02  3.6336603980E-01
  5.3550000000E+03  2.0744186308E+00  7.8982140590E+00  3.3964502977E-02  3.3276566571E-02  3.6360718897E-01
  5.3600000000E+03  2.0767180698E+00  7.8939526012E+00  3.4060472771E-02  3.3369201042E-02  3.6384810227E-01
  5.3650000000E+03  2.0790179101E+00  7.8896974128E+00  3.4156623581E-02  3.3462003257E-02  3.6408878030E-01
  5.3700000000E+03  2.0813181513E+00  7.8854484788E+00  3.4252955580E-02  3.3554973345E-02  3.6432922364E-01
  5.3750000000E+03  2.0836187933E+00  7.8812057842E+00  3.4349468937E-02  3.3648111438E-02  3.6456943288E-01
  5.3800000000E+03  2.0859198357E+00  7.8769693140E+00  3.4446163825E-02  3.3741417664E-02  3.6480940859E-01
  5.3850000000E+03  2.0882212781E+00  7.8727390533E+00  3.4543040415E-02  3.3834892152E-02  3.6504915135E-01
  5.3900000000E+03  2.0905231204E+00  7.8685149873E+00  3.4640098878E-02  3.3928535032E-02  3.6528866173E-01
  5.3950000000E+03  2.0928253621E+00  7.8642971011E+00  3.4737339386E-02  3.4022346434E-02  3.6552794032E-01
  5.4000000000E+03  2.0951290349E+00  7.8600853800E+00  3.4834762110E-02  3.4116326760E-02  3.6576698768E-01
  5.4050000000E+03  2.0974331311E+00  7.8558798094E+00  3.4932367221E-02  3.4210475873E-02  3.6600580439E-01
  5.4100000000E+03  2.0997376273E+00  7.8516803744E+00  3.5030154891E-02  3.4304793897E-02  3.6624439101E-01
  5.4150000000E+03  2.1020425231E+00  7.8474870606E+00  3.5128125291E-02  3.4399280961E-02  3.6648274810E-01
  5.4200000000E+03  2.1043478182E+00  7.8433744043E+00  3.5226278593E-02  3.4493938634E-02  3.6672087624E-01
  5.4250000000E+03  2.1066535123E+00  7.8392774735E+00  3.5324614967E-02  3.4588765812E-02  3.6695877598E-01
  5.4300000000E+03  2.1089596052E+00  7.8351864539E+00  3.5423134585E-02  3.4683762432E-02  3.6719644789E-01
  5.4350000000E+03  2.1112660965E+00  7.8311013317E+00  3.5521837619E-02  3.4778928626E-02  3.6743389252E-01
  5.4400000000E+03  2.1135729859E+00  7.8270220929E+00  3.5620724239E-02  3.4874264520E-02  3.6767111042E-01
  5.4450000000E+03  2.1158802732E+00  7.8229487237E+00  3.5719794618E-02  3.4969770244E-02  3.6790810217E-01
  5.4500000000E+03  2.1182618781E+00  7.8188812101E+00  3.5819048926E-02  3.5065466182E-02  3.6814486829E-01
  5.4550000000E+03  2.1206444226E+00  7.8148195385E+00  3.5918487335E-02  3.5161332487E-02  3.6838140936E-01
  5.4600000000E+03  2.1230274603E+00  7.8107636951E+00  3.6018110016E-02  3.5257369166E-02  3.6861772591E-01
  5.4650000000E+03  2.1254109910E+00  7.8067136662E+00  3.6117917141E-02  3.5353576347E-02  3.6885381849E-01
  5.4700000000E+03  2.1277950144E+00  7.8026694381E+00  3.6217908881E-02  3.5449954159E-02  3.6908968765E-01
  5.4750000000E+03  2.1301795299E+00  7.7986309974E+00  3.6318085408E-02  3.5546502730E-02  3.6932533393E-01
  5.4800000000E+03  2.1325645374E+00  7.7945983303E+00  3.6418446892E-02  3.5643222190E-02  3.6956075788E-01
  5.4850000000E+03  2.1349500364E+00  7.7905714234E+00  3.6518993505E-02  3.5740112666E-02  3.6979596002E-01
  5.4900000000E+03  2.1373360267E+00  7.7865502633E+00  3.6619725418E-02  3.5837174286E-02  3.7003094090E-01
  5.4950000000E+03  2.1397225078E+00  7.7825348365E+00  3.6720642803E-02  3.5934407179E-02  3.7026570106E-01
  5.5000000000E+03  2.1421128933E+00  7.7785251296E+00  3.6821745832E-02  3.6031812438E-02  3.7050024103E-01
  5.5050000000E+03  2.1445040787E+00  7.7745574708E+00  3.6923553135E-02  3.6129886517E-02  3.7073456134E-01
  5.5100000000E+03  2.1468957587E+00  7.7706403108E+00  3.7025548832E-02  3.6228135464E-02  3.7096866251E-01
  5.5150000000E+03  2.1492879332E+00  7.7667286748E+00  3.7127733098E-02  3.6326558447E-02  3.7120254510E-01
  5.5200000000E+03  2.1516806017E+00  7.7628225499E+00  3.7230106111E-02  3.6425155598E-02  3.7143620976E-01
  5.5250000000E+03  2.1540737639E+00  7.7589219234E+00  3.7332668046E-02  3.6523927048E-02  3.7166965714E-01
  5.5300000000E+03  2.1564674195E+00  7.7550267826E+00  3.7435419080E-02  3.6622872929E-02  3.7190288785E-01
  5.5350000000E+03  2.1588615681E+00  7.7511371148E+00  3.7538359389E-02  3.6721993372E-02  3.7213590249E-01
  5.5400000000E+03  2.1612562093E+00  7.7472529074E+00  3.7641489149E-02  3.6821288509E-02  3.7236870168E-01
  5.5450000000E+03  2.1636513429E+00  7.7433741478E+00  3.7744808538E-02  3.6920758472E-02  3.7260128603E-01
  5.5500000000E+03  2.1660468619E+00  7.7395008235E+00  3.7848317731E-02  3.7020403360E-02  3.7283365613E-01
  5.5550000000E+03  2.1684428364E+00  7.7356329220E+00  3.7952016904E-02  3.7120223324E-02  3.7306581258E-01
  5.5600000000E+03  2.1708393020E+00  7.7317704308E+00  3.8055906234E-02  3.7220218508E-02  3.7329775599E-01
  5.5650000000E+03  2.1732362584E+00  7.7279133375E+00  3.8159985898E-02  3.7320389040E-02  3.7352948695E-01
  5.5700000000E+03  2.1756337052E+00  7.7240616297E+00  3.8264256072E-02  3.7420735053E-02  3.7376100605E-01
  5.5750000000E+03  2.1780316421E+00  7.7202152951E+00  3.8368716932E-02  3.7521256676E-02  3.7399231388E-01
  5.5800000000E+03  2.1804300688E+00  7.7163743213E+00  3.8473368654E-02  3.7621954042E-02  3.7422341104E-01
  5.5850000000E+03  2.1828289848E+00  7.7125386961E+00  3.8578211415E-02  3.7722827279E-02  3.7445429811E-01
  5.5900000000E+03  2.1852283900E+00  7.7087084073E+00  3.8683245392E-02  3.7823876519E-02  3.7468497568E-01
  5.5950000000E+03  2.1876282839E+00  7.7049402372E+00  3.8788470761E-02  3.7925103268E-02  3.7491544433E-01
  5.6000000000E+03  2.1900286870E+00  7.7011982780E+00  3.8893887697E-02  3.8026506813E-02  3.7514570464E-01
  5.6050000000E+03  2.1924296005E+00  7.6974614734E+00  3.8999496378E-02  3.8128086779E-02  3.7537575719E-01
  5.6100000000E+03  2.1948310018E+00  7.6937298114E+00  3.9105296981E-02  3.8229843289E-02  3.7560560256E-01
  5.6150000000E+03  2.1972328906E+00  7.6900032805E+00  3.9211289680E-02  3.8331776473E-02  3.7583524131E-01
  5.6200000000E+03  2.1996352664E+00  7.6862818691E+00  3.9317474653E-02  3.8433886462E-02  3.7606467403E-01
  5.6250000000E+03  2.2020381291E+00  7.6825655656E+00  3.9423852077E-02  3.8536173384E-02  3.7629390129E-01
  5.6300000000E+03  2.2044414781E+00  7.6788543584E+00  3.9530422127E-02  3.8638637370E-02  3.7652292365E-01
  5.6350000000E+03  2.2068453133E+00  7.6751482361E+00  3.9637184980E-02  3.8741278550E-02  3.7675174167E-01
  5.6400000000E+03  2.2092496343E+00  7.6714471871E+00  3.9744140813E-02  3.8844097052E-02  3.7698035593E-01
  5.6450000000E+03  2.2116544407E+00  7.6677512001E+00  3.9851289802E-02  3.8947093007E-02  3.7720876699E-01
  5.6500000000E+03  2.2140598970E+00  7.6640602636E+00  3.9958632123E-02  3.9050266596E-02  3.7743697540E-01
  5.6550000000E+03  2.2164669822E+00  7.6603743663E+00  4.0066167953E-02  3.9153618253E-02  3.7766498173E-01
  5.6600000000E+03  2.2188745535E+00  7.6566934969E+00  4.0173897468E-02  3.9257147753E-02  3.7789278652E-01
  5.6650000000E+03  2.2212826107E+00  7.6530176440E+00  4.0281820844E-02  3.9360855226E-02  3.7812039034E-01
  5.6700000000E+03  2.2236911533E+00  7.6493467964E+00  4.0389938259E-02  3.9464740800E-02  3.7834779374E-01
  5.6750000000E+03  2.2261001811E+00  7.6456809429E+00  4.0498249888E-02  3.9568804605E-02  3.7857499727E-01
  5.6800000000E+03  2.2285096936E+00  7.6420200723E+00  4.0606755909E-02  3.9673046769E-02  3.7880200148E-01
  5.6850000000E+03  2.2309196907E+00  7.6384183062E+00  4.0715456497E-02  3.9777468889E-02  3.7902880690E-01
  5.6900000000E+03  2.2333301719E+00  7.6348416912E+00  4.0824351828E-02  3.9882070194E-02  3.7925541410E-01
  5.6950000000E+03  2.2357411369E+00  7.6312698903E+00  4.0933442081E-02  3.9986850266E-02  3.7948182360E-01
  5.7000000000E+03  2.2381525854E+00  7.6277028926E+00  4.1042727429E-02  4.0091809232E-02  3.7970803596E-01
  5.7050000000E+03  2.2405644197E+00  7.6241406877E+00  4.1152208052E-02  4.0196947191E-02  3.7993405170E-01
  5.7100000000E+03  2.2429766891E+00  7.6205832647E+00  4.1261884124E-02  4.0302264285E-02  3.8015987138E-01
  5.7150000000E+03  2.2453894408E+00  7.6170306132E+00  4.1371755822E-02  4.0407760659E-02  3.8038549551E-01
  5.7200000000E+03  2.2478026745E+00  7.6134827226E+00  4.1481823323E-02  4.0513436441E-02  3.8061092464E-01
  5.7250000000E+03  2.2502163899E+00  7.6099395823E+00  4.1592086803E-02  4.0619291758E-02  3.8083615930E-01
  5.7300000000E+03  2.2526305867E+00  7.6064011818E+00  4.1702546439E-02  4.0725326739E-02  3.8106120002E-01
  5.7350000000E+03  2.2550452645E+00  7.6028675107E+00  4.1813202407E-02  4.0831541510E-02  3.8128604732E-01
  5.7400000000E+03  2.2574604230E+00  7.5993385586E+00  4.1924054884E-02  4.0937936201E-02  3.8151070173E-01
  5.7450000000E+03  2.2598760618E+00  7.5958143149E+00  4.2035104046E-02  4.1044510938E-02  3.8173516378E-01
  5.7500000000E+03  2.2622921807E+00  7.5922947694E+00  4.2146350069E-02  4.1151265849E-02  3.8195943398E-01
  5.7550000000E+03  2.2647089181E+00  7.5887799117E+00  4.2257793131E-02  4.1258201108E-02  3.8218351287E-01
  5.7600000000E+03  2.2671271528E+00  7.5852697316E+00  4.2369433407E-02  4.1365317134E-02  3.8240740095E-01
  5.7650000000E+03  2.2695458680E+00  7.5817642186E+00  4.2481271075E-02  4.1472613719E-02  3.8263109874E-01
  5.7700000000E+03  2.2719650634E+00  7.5782633626E+00  4.2593306310E-02  4.1580090989E-02  3.8285460676E-01
  5.7750000000E+03  2.2743847388E+00  7.5747981123E+00  4.2705539289E-02  4.1687750010E-02  3.8307792553E-01
  5.7800000000E+03  2.2768048938E+00  7.5713776596E+00  4.2817970188E-02  4.1795591205E-02  3.8330105555E-01
  5.7850000000E+03  2.2792255280E+00  7.5679617070E+00  4.2930599185E-02  4.1903613490E-02  3.8352399734E-01
  5.7900000000E+03  2.2816466412E+00  7.5645502448E+00  4.3043426456E-02  4.2011816990E-02  3.8374675140E-01
  5.7950000000E+03  2.2840682330E+00  7.5611432631E+00  4.3156452177E-02  4.2120201832E-02  3.8396931824E-01
  5.8000000000E+03  2.2864903031E+00  7.5577407521E+00  4.3269676524E-02  4.2228768143E-02  3.8419169836E-01
  5.8050000000E+03  2.2889128513E+00  7.5543427023E+00  4.3383099675E-02  4.2337516050E-02  3.8441389227E-01
  5.8100000000E+03  2.2913362573E+00  7.5509491039E+00  4.3496721806E-02  4.2446445808E-02  3.8463590048E-01
  5.8150000000E+03  2.2937605668E+00  7.5475599472E+00  4.3610543092E-02  4.2555557563E-02  3.8485772347E-01
  5.8200000000E+03  2.2961853544E+00  7.5441752227E+00  4.3724563712E-02  4.2664851293E-02  3.8507936175E-01
  5.8250000000E+03  2.2986106197E+00  7.5407949206E+00  4.3838783841E-02  4.2774327126E-02  3.8530081582E-01
  5.8300000000E+03  2.3010363624E+00  7.5374190316E+00  4.3953203656E-02  4.2883985187E-02  3.8552208616E-01
  5.8350000000E+03  2.3034625823E+00  7.5340475459E+00  4.4067823333E-02  4.2993825602E-02  3.8574317328E-01
  5.8400000000E+03  2.3058892789E+00  7.5306804542E+00  4.4182643050E-02  4.3103848497E-02  3.8596407767E-01
  5.8450000000E+03  2.3083164520E+00  7.5273177469E+00  4.4297662982E-02  4.3214053997E-02  3.8618479981E-01
  5.8500000000E+03  2.3107441013E+00  7.5239594145E+00  4.4412883306E-02  4.3324442228E-02  3.8640534018E-01
  5.8550000000E+03  2.3131722264E+00  7.5206054478E+00  4.4528304198E-02  4.3435013316E-02  3.8662569927E-01
  5.8600000000E+03  2.3156008271E+00  7.5172558371E+00  4.4643925836E-02  4.3545767386E-02  3.8684587760E-01
  5.8650000000E+03  2.3180304404E+00  7.5139105733E+00  4.4759748396E-02  4.3656704753E-02  3.8706587571E-01
  5.8700000000E+03  2.3204607342E+00  7.5106273514E+00  4.4875772054E-02  4.3767827387E-02  3.8728569412E-01
  5.8750000000E+03  2.3228915036E+00  7.5073587064E+00  4.4991996986E-02  4.3879133753E-02  3.8750533337E-01
  5.8800000000E+03  2.3253227482E+00  7.5040942627E+00  4.5108423370E-02  4.3990623626E-02  3.8772479400E-01
  5.8850000000E+03  2.3277544676E+00  7.5008340114E+00  4.5225051383E-02  4.4102297133E-02  3.8794407652E-01
  5.8900000000E+03  2.3301866617E+00  7.4975779436E+00  4.5341881200E-02  4.4214154396E-02  3.8816318146E-01
  5.8950000000E+03  2.3326193301E+00  7.4943260503E+00  4.5458912997E-02  4.4326195542E-02  3.8838210935E-01
  5.9000000000E+03  2.3350524724E+00  7.4910783227E+00  4.5576146953E-02  4.4438420695E-02  3.8860086071E-01
  5.9050000000E+03  2.3374860884E+00  7.4878347519E+00  4.5693583243E-02  4.4550829980E-02  3.8881943607E-01
  5.9100000000E+03  2.3399201777E+00  7.4845953290E+00  4.5811222044E-02  4.4663423520E-02  3.8903783593E-01
  5.9150000000E+03  2.3423547401E+00  7.4813600452E+00  4.5929063533E-02  4.4776201440E-02  3.8925606082E-01
  5.9200000000E+03  2.3447910328E+00  7.4781288918E+00  4.6047107885E-02  4.4889164325E-02  3.8947411125E-01
  5.9250000000E+03  2.3472279776E+00  7.4749018601E+00  4.6165355278E-02  4.5002311908E-02  3.8969198774E-01
  5.9300000000E+03  2.3496653964E+00  7.4716789412E+00  4.6283805889E-02  4.5115644247E-02  3.8990969079E-01
  5.9350000000E+03  2.3521032887E+00  7.4684601265E+00  4.6402459893E-02  4.5229161465E-02  3.9012722093E-01
  5.9400000000E+03  2.3545416542E+00  7.4652454073E+00  4.6521317468E-02  4.5342863688E-02  3.9034457864E-01
  5.9450000000E+03  2.3569804928E+00  7.4620347749E+00  4.6640378790E-02  4.5456751038E-02  3.9056176446E-01
  5.9500000000E+03  2.3594198040E+00  7.4588282208E+00  4.6759644035E-02  4.5570823639E-02  3.9077877886E-01
  5.9550000000E+03  2.3618595875E+00  7.4556257363E+00  4.6879113381E-02  4.5685081615E-02  3.9099562237E-01
  5.9600000000E+03  2.3642998432E+00  7.4524273128E+00  4.6998787004E-02  4.5799525088E-02  3.9121229548E-01
  5.9650000000E+03  2.3667405705E+00  7.4492955018E+00  4.7118665080E-02  4.5914156560E-02  3.9142879870E-01
  5.9700000000E+03  2.3691817693E+00  7.4461701209E+00  4.7238747787E-02  4.6028973894E-02  3.9164513251E-01
  5.9750000000E+03  2.3716228377E+00  7.4430486660E+00  4.7359035300E-02  4.6143976893E-02  3.9186129742E-01
  5.9800000000E+03  2.3740643308E+00  7.4399311291E+00  4.7479527796E-02  4.6259165889E-02  3.9207729392E-01
  5.9850000000E+03  2.3765062937E+00  7.4368175018E+00  4.7600225453E-02  4.6374541021E-02  3.9229312250E-01
  5.9900000000E+03  2.3789487260E+00  7.4337077761E+00  4.7721128446E-02  4.6490102412E-02  3.9250878366E-01
  5.9950000000E+03  2.3813916275E+00  7.4306019438E+00  4.7842236952E-02  4.6605850185E-02  3.9272427789E-01
  6.0000000000E+03  2.3838349978E+00  7.4274999967E+00  4.7963551149E-02  4.6721784463E-02  3.9293960566E-01
  6.0050000000E+03  2.3862788367E+00  7.4244019269E+00  4.8085910856E-02  4.6838702022E-02  3.9315476748E-01
  6.0100000000E+03  2.3887231437E+00  7.4213077261E+00  4.8208480199E-02  4.6955809584E-02  3.9336976383E-01
  6.0150000000E+03  2.3911679187E+00  7.4182173865E+00  4.8331259361E-02  4.7073107279E-02  3.9358459518E-01
  6.0200000000E+03  2.3936131614E+00  7.4151308999E+00  4.8454248527E-02  4.7190595232E-02  3.9379926202E-01
  6.0250000000E+03  2.3960588714E+00  7.4120482583E+00  4.8577447880E-02  4.7308273572E-02  3.9401376484E-01
  6.0300000000E+03  2.3985129002E+00  7.4089694538E+00  4.8700857603E-02  4.7426145495E-02  3.9422810410E-01
  6.0350000000E+03  2.4009684766E+00  7.4058944785E+00  4.8824477880E-02  4.7544208501E-02  3.9444228029E-01
  6.0400000000E+03  2.4034245304E+00  7.4028233243E+00  4.8948308894E-02  4.7662462300E-02  3.9465629388E-01
  6.0450000000E+03  2.4058810610E+00  7.3997559835E+00  4.9072350829E-02  4.7780907019E-02  3.9487014535E-01
  6.0500000000E+03  2.4083380684E+00  7.3966924480E+00  4.9196603868E-02  4.7899542784E-02  3.9508383517E-01
  6.0550000000E+03  2.4107955521E+00  7.3936327101E+00  4.9321068196E-02  4.8018369722E-02  3.9529736381E-01
  6.0600000000E+03  2.4132535119E+00  7.3906247344E+00  4.9445743995E-02  4.8137389995E-02  3.9551073173E-01
  6.0650000000E+03  2.4157119474E+00  7.3876346606E+00  4.9570631449E-02  4.8256602321E-02  3.9572393942E-01
  6.0700000000E+03  2.4181708584E+00  7.3846482590E+00  4.9695730742E-02  4.8376006227E-02  3.9593698732E-01
  6.0750000000E+03  2.4206302446E+00  7.3816655222E+00  4.9821042058E-02  4.8495601838E-02  3.9614987592E-01
  6.0800000000E+03  2.4230901056E+00  7.3786864425E+00  4.9946565580E-02  4.8615389281E-02  3.9636260567E-01
  6.0850000000E+03  2.4255920016E+00  7.3757110125E+00  5.0072301491E-02  4.8735385461E-02  3.9657517703E-01
  6.0900000000E+03  2.4281098040E+00  7.3727392248E+00  5.0198249975E-02  4.8855580070E-02  3.9678759047E-01
  6.0950000000E+03  2.4306281505E+00  7.3697710718E+00  5.0324411217E-02  4.8975967051E-02  3.9699984644E-01
  6.1000000000E+03  2.4331470406E+00  7.3668065463E+00  5.0450785399E-02  4.9096546530E-02  3.9721194540E-01
  6.1050000000E+03  2.4356664741E+00  7.3638456407E+00  5.0577372705E-02  4.9217318634E-02  3.9742388781E-01
  6.1100000000E+03  2.4381864505E+00  7.3608883477E+00  5.0704173319E-02  4.9338283489E-02  3.9763567413E-01
  6.1150000000E+03  2.4407069697E+00  7.3579346599E+00  5.0831187424E-02  4.9459441222E-02  3.9784730479E-01
  6.1200000000E+03  2.4432280311E+00  7.3549845701E+00  5.0958415205E-02  4.9580791958E-02  3.9805878027E-01
  6.1250000000E+03  2.4457496346E+00  7.3520380708E+00  5.1085856844E-02  4.9702335823E-02  3.9827010101E-01
  6.1300000000E+03  2.4482717798E+00  7.3490951548E+00  5.1213512526E-02  4.9824072944E-02  3.9848126745E-01
  6.1350000000E+03  2.4507944664E+00  7.3461558148E+00  5.1341382433E-02  4.9946003447E-02  3.9869228005E-01
  6.1400000000E+03  2.4533177771E+00  7.3432200435E+00  5.1469466751E-02  5.0068127490E-02  3.9890313925E-01
  6.1450000000E+03  2.4558417202E+00  7.3402878338E+00  5.1597765662E-02  5.0190445205E-02  3.9911384550E-01
  6.1500000000E+03  2.4583662038E+00  7.3373591784E+00  5.1726279350E-02  5.0312956677E-02  3.9932439924E-01
  6.1550000000E+03  2.4608912278E+00  7.3344502583E+00  5.1855007999E-02  5.0435662799E-02  3.9953480091E-01
  6.1600000000E+03  2.4634167917E+00  7.3315880699E+00  5.1983951793E-02  5.0558564992E-02  3.9974505095E-01
  6.1650000000E+03  2.4659428953E+00  7.3287293193E+00  5.2113110914E-02  5.0681661347E-02  3.9995514982E-01
  6.1700000000E+03  2.4684695382E+00  7.3258739996E+00  5.2242485548E-02  5.0804951988E-02  4.0016509824E-01
  6.1750000000E+03  2.4709967201E+00  7.3230221039E+00  5.2372075878E-02  5.0928437041E-02  4.0037489683E-01
  6.1800000000E+03  2.4735244406E+00  7.3201736255E+00  5.2501882087E-02  5.1052116630E-02  4.0058454606E-01
  6.1850000000E+03  2.4760526995E+00  7.3173285573E+00  5.2631904359E-02  5.1175990880E-02  4.0079404637E-01
  6.1900000000E+03  2.4785814965E+00  7.3144868926E+00  5.2762142878E-02  5.1300059917E-02  4.0100339821E-01
  6.1950000000E+03  2.4811108676E+00  7.3116486245E+00  5.2892597828E-02  5.1424323879E-02  4.0121260203E-01
  6.2000000000E+03  2.4836410483E+00  7.3088137464E+00  5.3023269392E-02  5.1548782994E-02  4.0142165829E-01
  6.2050000000E+03  2.4861717665E+00  7.3059822513E+00  5.3154157755E-02  5.1673437268E-02  4.0163056741E-01
  6.2100000000E+03  2.4887030218E+00  7.3031541325E+00  5.3285263099E-02  5.1798286828E-02  4.0183932986E-01
  6.2150000000E+03  2.4912348139E+00  7.3003293833E+00  5.3416585609E-02  5.1923331796E-02  4.0204794607E-01
  6.2200000000E+03  2.4937671425E+00  7.2975079970E+00  5.3548125469E-02  5.2048572296E-02  4.0225641648E-01
  6.2250000000E+03  2.4963000073E+00  7.2946899668E+00  5.3679882862E-02  5.2174008453E-02  4.0246474154E-01
  6.2300000000E+03  2.4988334080E+00  7.2918752861E+00  5.3811857972E-02  5.2299640390E-02  4.0267292168E-01
  6.2350000000E+03  2.5013673442E+00  7.2890639483E+00  5.3944050983E-02  5.2425468231E-02  4.0288095734E-01
  6.2400000000E+03  2.5039018156E+00  7.2862559466E+00  5.4076462079E-02  5.2551492099E-02  4.0308884896E-01
  6.2450000000E+03  2.5064368220E+00  7.2834512744E+00  5.4209091443E-02  5.2677712118E-02  4.0329659698E-01
  6.2500000000E+03  2.5089723630E+00  7.2806499252E+00  5.4341939259E-02  5.2804128411E-02  4.0350420182E-01
  6.2550000000E+03  2.5115083836E+00  7.2778779665E+00  5.4475005712E-02  5.2930742457E-02  4.0371166392E-01
  6.2600000000E+03  2.5140449093E+00  7.2751399479E+00  5.4608290984E-02  5.3057554654E-02  4.0391898371E-01
  6.2650000000E+03  2.5165819686E+00  7.2724051442E+00  5.4741795260E-02  5.3184563523E-02  4.0412616162E-01
  6.2700000000E+03  2.5191195610E+00  7.2696735490E+00  5.4875518724E-02  5.3311769187E-02  4.0433319808E-01
  6.2750000000E+03  2.5216576864E+00  7.2669451560E+00  5.5009461560E-02  5.3439171769E-02  4.0454009351E-01
  6.2800000000E+03  2.5241963445E+00  7.2642199590E+00  5.5143623950E-02  5.3566771392E-02  4.0474684835E-01
  6.2850000000E+03  2.5267355348E+00  7.2614979516E+00  5.5278006080E-02  5.3694568177E-02  4.0495346301E-01
  6.2900000000E+03  2.5292752571E+00  7.2587791276E+00  5.5412608133E-02  5.3822562249E-02  4.0515993793E-01
  6.2950000000E+03  2.5318155111E+00  7.2560634807E+00  5.5547430293E-02  5.3950753729E-02  4.0536627351E-01
  6.3000000000E+03  2.5343562964E+00  7.2533510047E+00  5.5682472744E-02  5.4079142739E-02  4.0557247019E-01
  6.3050000000E+03  2.5368976129E+00  7.2506416934E+00  5.5817735669E-02  5.4207729402E-02  4.0577852837E-01
  6.3100000000E+03  2.5394394200E+00  7.2479355406E+00  5.5953219253E-02  5.4336513822E-02  4.0598444849E-01
  6.3150000000E+03  2.5419813324E+00  7.2452325401E+00  5.6088923679E-02  5.4465495943E-02  4.0619023096E-01
  6.3200000000E+03  2.5445237744E+00  7.2425326857E+00  5.6224849132E-02  5.4594676081E-02  4.0639587619E-01
  6.3250000000E+03  2.5470667456E+00  7.2398359713E+00  5.6360995795E-02  5.4724054358E-02  4.0660138459E-01
  6.3300000000E+03  2.5496102457E+00  7.2371423908E+00  5.6497363852E-02  5.4853630896E-02  4.0680675659E-01
  6.3350000000E+03  2.5521542745E+00  7.2344519380E+00  5.6633953487E-02  5.4983405816E-02  4.0701199259E-01
  6.3400000000E+03  2.5546988317E+00  7.2317646069E+00  5.6770764884E-02  5.5113379239E-02  4.0721709301E-01
  6.3450000000E+03  2.5572439168E+00  7.2290803914E+00  5.6907798227E-02  5.5243551287E-02  4.0742205825E-01
  6.3500000000E+03  2.5597895297E+00  7.2263992854E+00  5.7045053700E-02  5.5373922080E-02  4.0762688872E-01
