#[MATERIAL DEFINITION FOR MC-GPU: interaction mean free path and sampling data from PENELOPE 2018]
#[MATERIAL NAME]
# eye                                                           
#[NOMINAL DENSITY (g/cm^3)]
#   1.05000000
#[NUMBER OF DATA VALUES]
#  23002
#[MEAN FREE PATHS (cm) (ie, average distance between interactions)]
#[Energy (eV)     | Rayleigh        | Compton         | Photoelectric   | TOTAL (+pair prod) (cm) | Rayleigh: max cumul prob F^2]
  5.0000000000E+03  1.7817155505E+00  8.2224108199E+00  2.5352569553E-02  2.4921118884E-02  3.4791574122E-01
  5.0050000000E+03  1.7838289513E+00  8.2172005310E+00  2.5429341180E-02  2.4995663185E-02  3.4817608584E-01
  5.0100000000E+03  1.7859427450E+00  8.2119987414E+00  2.5506268082E-02  2.5070353337E-02  3.4843613278E-01
  5.0150000000E+03  1.7880591595E+00  8.2068054285E+00  2.5583350416E-02  2.5145189906E-02  3.4869588272E-01
  5.0200000000E+03  1.7901773015E+00  8.2016205703E+00  2.5660588341E-02  2.5220172848E-02  3.4895533637E-01
  5.0250000000E+03  1.7922958402E+00  8.1964441444E+00  2.5737982015E-02  2.5295302027E-02  3.4921449439E-01
  5.0300000000E+03  1.7944147754E+00  8.1912761289E+00  2.5815531596E-02  2.5370577568E-02  3.4947335749E-01
  5.0350000000E+03  1.7965341067E+00  8.1861165017E+00  2.5893237241E-02  2.5445999598E-02  3.4973192634E-01
  5.0400000000E+03  1.7986538338E+00  8.1809652408E+00  2.5971099110E-02  2.5521568244E-02  3.4999020162E-01
  5.0450000000E+03  1.8007739563E+00  8.1758223246E+00  2.6049117358E-02  2.5597283632E-02  3.5024818400E-01
  5.0500000000E+03  1.8028944741E+00  8.1706877311E+00  2.6127292146E-02  2.5673145887E-02  3.5050587417E-01
  5.0550000000E+03  1.8050153867E+00  8.1655614387E+00  2.6205623630E-02  2.5749155135E-02  3.5076327280E-01
  5.0600000000E+03  1.8071369861E+00  8.1604434258E+00  2.6284111968E-02  2.5825311562E-02  3.5102038055E-01
  5.0650000000E+03  1.8092595235E+00  8.1553336708E+00  2.6362757319E-02  2.5901615347E-02  3.5127719810E-01
  5.0700000000E+03  1.8113824559E+00  8.1502321523E+00  2.6441559841E-02  2.5978066504E-02  3.5153372610E-01
  5.0750000000E+03  1.8135057831E+00  8.1451388490E+00  2.6520519691E-02  2.6054665160E-02  3.5178996523E-01
  5.0800000000E+03  1.8156295046E+00  8.1400537394E+00  2.6599637028E-02  2.6131411438E-02  3.5204591614E-01
  5.0850000000E+03  1.8177536202E+00  8.1350644183E+00  2.6678912009E-02  2.6208306376E-02  3.5230157948E-01
  5.0900000000E+03  1.8198781296E+00  8.1300915495E+00  2.6758344793E-02  2.6285349288E-02  3.5255695593E-01
  5.0950000000E+03  1.8220030324E+00  8.1251265987E+00  2.6837935537E-02  2.6362540212E-02  3.5281204612E-01
  5.1000000000E+03  1.8241283284E+00  8.1201695454E+00  2.6917684399E-02  2.6439879274E-02  3.5306685072E-01
  5.1050000000E+03  1.8262540172E+00  8.1152203693E+00  2.6997591538E-02  2.6517366598E-02  3.5332137036E-01
  5.1100000000E+03  1.8283801783E+00  8.1102790504E+00  2.7077657112E-02  2.6595002328E-02  3.5357560570E-01
  5.1150000000E+03  1.8305067326E+00  8.1053455683E+00  2.7157881278E-02  2.6672786570E-02  3.5382955738E-01
  5.1200000000E+03  1.8326336788E+00  8.1004199032E+00  2.7238264194E-02  2.6750719451E-02  3.5408322605E-01
  5.1250000000E+03  1.8347610167E+00  8.0955020348E+00  2.7318806018E-02  2.6828801096E-02  3.5433661233E-01
  5.1300000000E+03  1.8368887460E+00  8.0905919434E+00  2.7399506909E-02  2.6907031629E-02  3.5458971688E-01
  5.1350000000E+03  1.8390168664E+00  8.0856896090E+00  2.7480367025E-02  2.6985411174E-02  3.5484254032E-01
  5.1400000000E+03  1.8411453775E+00  8.0807950119E+00  2.7561386522E-02  2.7063939858E-02  3.5509508329E-01
  5.1450000000E+03  1.8432742791E+00  8.0759081324E+00  2.7642565561E-02  2.7142617804E-02  3.5534734641E-01
  5.1500000000E+03  1.8454035708E+00  8.0710289507E+00  2.7723904297E-02  2.7221445137E-02  3.5559933033E-01
  5.1550000000E+03  1.8475333851E+00  8.0661574474E+00  2.7805402890E-02  2.7300422011E-02  3.5585103566E-01
  5.1600000000E+03  1.8496637013E+00  8.0612936028E+00  2.7887061497E-02  2.7379548546E-02  3.5610246298E-01
  5.1650000000E+03  1.8517944071E+00  8.0564888694E+00  2.7968880277E-02  2.7458825439E-02  3.5635361267E-01
  5.1700000000E+03  1.8539255022E+00  8.0517330576E+00  2.8050859387E-02  2.7538252709E-02  3.5660448537E-01
  5.1750000000E+03  1.8560569862E+00  8.0469846463E+00  2.8132998985E-02  2.7617830001E-02  3.5685508178E-01
  5.1800000000E+03  1.8581888588E+00  8.0422436168E+00  2.8215299230E-02  2.7697557439E-02  3.5710540260E-01
  5.1850000000E+03  1.8603211197E+00  8.0375099507E+00  2.8297760280E-02  2.7777435148E-02  3.5735544850E-01
  5.1900000000E+03  1.8624537687E+00  8.0327836294E+00  2.8380382291E-02  2.7857463251E-02  3.5760522016E-01
  5.1950000000E+03  1.8645868054E+00  8.0280646343E+00  2.8463165424E-02  2.7937641873E-02  3.5785471829E-01
  5.2000000000E+03  1.8667202362E+00  8.0233529472E+00  2.8546109834E-02  2.8017971139E-02  3.5810394354E-01
  5.2050000000E+03  1.8688548785E+00  8.0186485498E+00  2.8629215681E-02  2.8098451357E-02  3.5835289660E-01
  5.2100000000E+03  1.8709899086E+00  8.0139514236E+00  2.8712483123E-02  2.8179082466E-02  3.5860157814E-01
  5.2150000000E+03  1.8731253264E+00  8.0092615506E+00  2.8795912317E-02  2.8259864590E-02  3.5884998883E-01
  5.2200000000E+03  1.8752611315E+00  8.0045789126E+00  2.8879503422E-02  2.8340797854E-02  3.5909812935E-01
  5.2250000000E+03  1.8773973237E+00  7.9999034915E+00  2.8963256595E-02  2.8421882379E-02  3.5934600035E-01
  5.2300000000E+03  1.8795339025E+00  7.9952352694E+00  2.9047171995E-02  2.8503118290E-02  3.5959360251E-01
  5.2350000000E+03  1.8816708678E+00  7.9905742282E+00  2.9131249779E-02  2.8584505709E-02  3.5984093648E-01
  5.2400000000E+03  1.8838082191E+00  7.9859203501E+00  2.9215490106E-02  2.8666044761E-02  3.6008800292E-01
  5.2450000000E+03  1.8859459563E+00  7.9812736172E+00  2.9299896249E-02  2.8747738567E-02  3.6033480249E-01
  5.2500000000E+03  1.8880853468E+00  7.9767177712E+00  2.9384478416E-02  2.8829598314E-02  3.6058133584E-01
  5.2550000000E+03  1.8902271420E+00  7.9721748766E+00  2.9469223691E-02  2.8911610713E-02  3.6082760363E-01
  5.2600000000E+03  1.8923693265E+00  7.9676388861E+00  2.9554132232E-02  2.8993775342E-02  3.6107360650E-01
  5.2650000000E+03  1.8945118999E+00  7.9631097824E+00  2.9639204197E-02  2.9076092324E-02  3.6131934509E-01
  5.2700000000E+03  1.8966548620E+00  7.9585875487E+00  2.9724439745E-02  2.9158561782E-02  3.6156482007E-01
  5.2750000000E+03  1.8987982124E+00  7.9540721681E+00  2.9809839034E-02  2.9241183840E-02  3.6181003205E-01
  5.2800000000E+03  1.9009419508E+00  7.9495636236E+00  2.9895402222E-02  2.9323958619E-02  3.6205498170E-01
  5.2850000000E+03  1.9030860770E+00  7.9450618984E+00  2.9981129468E-02  2.9406886243E-02  3.6229966963E-01
  5.2900000000E+03  1.9052305906E+00  7.9405669759E+00  3.0067020930E-02  2.9489966835E-02  3.6254409650E-01
  5.2950000000E+03  1.9073754914E+00  7.9360788392E+00  3.0153076766E-02  2.9573200517E-02  3.6278826292E-01
  5.3000000000E+03  1.9095210113E+00  7.9315974719E+00  3.0239297134E-02  2.9656587468E-02  3.6303216953E-01
  5.3050000000E+03  1.9116670305E+00  7.9271228572E+00  3.0325682193E-02  2.9740127782E-02  3.6327581696E-01
  5.3100000000E+03  1.9138134364E+00  7.9226549786E+00  3.0412232101E-02  2.9823821555E-02  3.6351920583E-01
  5.3150000000E+03  1.9159602288E+00  7.9181938198E+00  3.0498947016E-02  2.9907668909E-02  3.6376233678E-01
  5.3200000000E+03  1.9181074072E+00  7.9137393643E+00  3.0585827097E-02  2.9991669966E-02  3.6400521040E-01
  5.3250000000E+03  1.9202549715E+00  7.9092915956E+00  3.0672872501E-02  3.0075824848E-02  3.6424782734E-01
  5.3300000000E+03  1.9224029214E+00  7.9048543504E+00  3.0760083388E-02  3.0160133734E-02  3.6449018819E-01
  5.3350000000E+03  1.9245512564E+00  7.9005066828E+00  3.0847459915E-02  3.0244597906E-02  3.6473229359E-01
  5.3400000000E+03  1.9266999765E+00  7.8961654758E+00  3.0935002242E-02  3.0329216284E-02  3.6497414413E-01
  5.3450000000E+03  1.9288490812E+00  7.8918307138E+00  3.1022710525E-02  3.0413988989E-02  3.6521574044E-01
  5.3500000000E+03  1.9309982302E+00  7.8875023812E+00  3.1110584923E-02  3.0498916060E-02  3.6545708311E-01
  5.3550000000E+03  1.9331477129E+00  7.8831804624E+00  3.1198625596E-02  3.0583997689E-02  3.6569817275E-01
  5.3600000000E+03  1.9352975788E+00  7.8788649420E+00  3.1286832700E-02  3.0669234011E-02  3.6593900996E-01
  5.3650000000E+03  1.9374478278E+00  7.8745558046E+00  3.1375206394E-02  3.0754625147E-02  3.6617959536E-01
  5.3700000000E+03  1.9395984595E+00  7.8702530348E+00  3.1463746837E-02  3.0840171218E-02  3.6641992953E-01
  5.3750000000E+03  1.9417494736E+00  7.8659566172E+00  3.1552454187E-02  3.0925872347E-02  3.6666001307E-01
  5.3800000000E+03  1.9439008699E+00  7.8616665366E+00  3.1641328603E-02  3.1011728655E-02  3.6689984658E-01
  5.3850000000E+03  1.9460526480E+00  7.8573827777E+00  3.1730370241E-02  3.1097740263E-02  3.6713943064E-01
  5.3900000000E+03  1.9482048076E+00  7.8531053254E+00  3.1819579262E-02  3.1183907292E-02  3.6737876586E-01
  5.3950000000E+03  1.9503573485E+00  7.8488341646E+00  3.1908955823E-02  3.1270229863E-02  3.6761785282E-01
  5.4000000000E+03  1.9525113833E+00  7.8445692802E+00  3.1998500082E-02  3.1356708384E-02  3.6785669210E-01
  5.4050000000E+03  1.9546658252E+00  7.8403106572E+00  3.2088212198E-02  3.1443342698E-02  3.6809528429E-01
  5.4100000000E+03  1.9568206489E+00  7.8360582805E+00  3.2178092329E-02  3.1530132920E-02  3.6833362997E-01
  5.4150000000E+03  1.9589758543E+00  7.8318121353E+00  3.2268140634E-02  3.1617079171E-02  3.6857172972E-01
  5.4200000000E+03  1.9611314410E+00  7.8276463762E+00  3.2358357270E-02  3.1704182787E-02  3.6880958412E-01
  5.4250000000E+03  1.9632874087E+00  7.8234964018E+00  3.2448742397E-02  3.1791442847E-02  3.6904719375E-01
  5.4300000000E+03  1.9654437571E+00  7.8193524477E+00  3.2539296171E-02  3.1878859312E-02  3.6928455918E-01
  5.4350000000E+03  1.9676004860E+00  7.8152144996E+00  3.2630018753E-02  3.1966432304E-02  3.6952168097E-01
  5.4400000000E+03  1.9697575950E+00  7.8110825432E+00  3.2720910300E-02  3.2054161943E-02  3.6975855971E-01
  5.4450000000E+03  1.9719150839E+00  7.8069565644E+00  3.2811970970E-02  3.2142048349E-02  3.6999519596E-01
  5.4500000000E+03  1.9741469234E+00  7.8028365491E+00  3.2903200922E-02  3.2230111360E-02  3.7023159028E-01
  5.4550000000E+03  1.9763796857E+00  7.7987224831E+00  3.2994600313E-02  3.2318331651E-02  3.7046774324E-01
  5.4600000000E+03  1.9786129241E+00  7.7946143525E+00  3.3086169304E-02  3.2406709226E-02  3.7070365540E-01
  5.4650000000E+03  1.9808466384E+00  7.7905121433E+00  3.3177908051E-02  3.2495244205E-02  3.7093932732E-01
  5.4700000000E+03  1.9830808283E+00  7.7864158416E+00  3.3269816713E-02  3.2583936709E-02  3.7117475956E-01
  5.4750000000E+03  1.9853154933E+00  7.7823254333E+00  3.3361895448E-02  3.2672786859E-02  3.7140995268E-01
  5.4800000000E+03  1.9875506332E+00  7.7782409048E+00  3.3454144415E-02  3.2761794774E-02  3.7164490723E-01
  5.4850000000E+03  1.9897862476E+00  7.7741622421E+00  3.3546563772E-02  3.2850960576E-02  3.7187962376E-01
  5.4900000000E+03  1.9920223362E+00  7.7700894316E+00  3.3639153678E-02  3.2940284384E-02  3.7211410282E-01
  5.4950000000E+03  1.9942588987E+00  7.7660224594E+00  3.3731914290E-02  3.3029766319E-02  3.7234834497E-01
  5.5000000000E+03  1.9964993764E+00  7.7619613120E+00  3.3824845768E-02  3.3119407448E-02  3.7258235074E-01
  5.5050000000E+03  1.9987406395E+00  7.7579422193E+00  3.3918402488E-02  3.3209643135E-02  3.7281612069E-01
  5.5100000000E+03  2.0009823805E+00  7.7539736081E+00  3.4012132487E-02  3.3300040088E-02  3.7304965535E-01
  5.5150000000E+03  2.0032245990E+00  7.7500106239E+00  3.4106035927E-02  3.3390597615E-02  3.7328295528E-01
  5.5200000000E+03  2.0054672948E+00  7.7460532536E+00  3.4200112971E-02  3.3481315838E-02  3.7351602117E-01
  5.5250000000E+03  2.0077104674E+00  7.7421014844E+00  3.4294363783E-02  3.3572194882E-02  3.7374885371E-01
  5.5300000000E+03  2.0099541166E+00  7.7381553031E+00  3.4388788524E-02  3.3663234869E-02  3.7398145354E-01
  5.5350000000E+03  2.0121982420E+00  7.7342146968E+00  3.4483387357E-02  3.3754435923E-02  3.7421382130E-01
  5.5400000000E+03  2.0144428432E+00  7.7302796527E+00  3.4578160445E-02  3.3845798167E-02  3.7444595762E-01
  5.5450000000E+03  2.0166879201E+00  7.7263501578E+00  3.4673107950E-02  3.3937321724E-02  3.7467786313E-01
  5.5500000000E+03  2.0189337384E+00  7.7224261993E+00  3.4768230036E-02  3.4029006792E-02  3.7490953848E-01
  5.5550000000E+03  2.0211801217E+00  7.7185077645E+00  3.4863526865E-02  3.4120853445E-02  3.7514098427E-01
  5.5600000000E+03  2.0234269801E+00  7.7145948407E+00  3.4958998599E-02  3.4212861780E-02  3.7537220115E-01
  5.5650000000E+03  2.0256743132E+00  7.7106874150E+00  3.5054645401E-02  3.4305031920E-02  3.7560318973E-01
  5.5700000000E+03  2.0279221207E+00  7.7067854750E+00  3.5150467434E-02  3.4397363988E-02  3.7583395063E-01
  5.5750000000E+03  2.0301704022E+00  7.7028890079E+00  3.5246464861E-02  3.4489858106E-02  3.7606448448E-01
  5.5800000000E+03  2.0324191576E+00  7.6989980012E+00  3.5342637844E-02  3.4582514396E-02  3.7629479189E-01
  5.5850000000E+03  2.0346683863E+00  7.6951124424E+00  3.5438986547E-02  3.4675332981E-02  3.7652487348E-01
  5.5900000000E+03  2.0369180881E+00  7.6912323189E+00  3.5535511130E-02  3.4768313983E-02  3.7675472985E-01
  5.5950000000E+03  2.0391682627E+00  7.6874143863E+00  3.5632211759E-02  3.4861458691E-02  3.7698436162E-01
  5.6000000000E+03  2.0414190354E+00  7.6836227525E+00  3.5729088594E-02  3.4954766545E-02  3.7721376939E-01
  5.6050000000E+03  2.0436704146E+00  7.6798363702E+00  3.5826141799E-02  3.5048237239E-02  3.7744295377E-01
  5.6100000000E+03  2.0459222658E+00  7.6760552275E+00  3.5923371537E-02  3.5141870857E-02  3.7767191537E-01
  5.6150000000E+03  2.0481745890E+00  7.6722793124E+00  3.6020777970E-02  3.5235667520E-02  3.7790065477E-01
  5.6200000000E+03  2.0504273836E+00  7.6685086131E+00  3.6118361261E-02  3.5329627350E-02  3.7812917258E-01
  5.6250000000E+03  2.0526806493E+00  7.6647431177E+00  3.6216121572E-02  3.5423750469E-02  3.7835746939E-01
  5.6300000000E+03  2.0549343860E+00  7.6609828145E+00  3.6314059068E-02  3.5518036998E-02  3.7858554581E-01
  5.6350000000E+03  2.0571885932E+00  7.6572276916E+00  3.6412173909E-02  3.5612487060E-02  3.7881340241E-01
  5.6400000000E+03  2.0594432706E+00  7.6534777374E+00  3.6510466259E-02  3.5707100775E-02  3.7904103979E-01
  5.6450000000E+03  2.0616984178E+00  7.6497329402E+00  3.6608936281E-02  3.5801878265E-02  3.7926845854E-01
  5.6500000000E+03  2.0639541580E+00  7.6459932883E+00  3.6707584137E-02  3.5896819689E-02  3.7949565924E-01
  5.6550000000E+03  2.0662112229E+00  7.6422587701E+00  3.6806409990E-02  3.5991925391E-02  3.7972264247E-01
  5.6600000000E+03  2.0684687580E+00  7.6385293740E+00  3.6905414003E-02  3.6087195233E-02  3.7994940882E-01
  5.6650000000E+03  2.0707267630E+00  7.6348050885E+00  3.7004596339E-02  3.6182629338E-02  3.8017595885E-01
  5.6700000000E+03  2.0729852376E+00  7.6310859021E+00  3.7103957161E-02  3.6278227826E-02  3.8040229316E-01
  5.6750000000E+03  2.0752441814E+00  7.6273718034E+00  3.7203496630E-02  3.6373990817E-02  3.8062841230E-01
  5.6800000000E+03  2.0775035943E+00  7.6236627808E+00  3.7303214910E-02  3.6469918434E-02  3.8085431686E-01
  5.6850000000E+03  2.0797634757E+00  7.6200130529E+00  3.7403112164E-02  3.6566012044E-02  3.8108000740E-01
  5.6900000000E+03  2.0820238255E+00  7.6163886043E+00  3.7503188555E-02  3.6662271005E-02  3.8130548449E-01
  5.6950000000E+03  2.0842846432E+00  7.6127690609E+00  3.7603444244E-02  3.6758694971E-02  3.8153074870E-01
  5.7000000000E+03  2.0865459287E+00  7.6091544118E+00  3.7703879396E-02  3.6855284063E-02  3.8175580059E-01
  5.7050000000E+03  2.0888076615E+00  7.6055446461E+00  3.7804494173E-02  3.6952038395E-02  3.8198064073E-01
  5.7100000000E+03  2.0910698515E+00  7.6019397529E+00  3.7905288737E-02  3.7048958089E-02  3.8220526966E-01
  5.7150000000E+03  2.0933325082E+00  7.5983397213E+00  3.8006263251E-02  3.7146043271E-02  3.8242968795E-01
  5.7200000000E+03  2.0955956314E+00  7.5947445407E+00  3.8107417879E-02  3.7243294059E-02  3.8265389615E-01
  5.7250000000E+03  2.0978592206E+00  7.5911542001E+00  3.8208752782E-02  3.7340710575E-02  3.8287789483E-01
  5.7300000000E+03  2.1001232756E+00  7.5875686890E+00  3.8310268125E-02  3.7438292937E-02  3.8310168452E-01
  5.7350000000E+03  2.1023877961E+00  7.5839879965E+00  3.8411964069E-02  3.7536041267E-02  3.8332526578E-01
  5.7400000000E+03  2.1046527817E+00  7.5804121120E+00  3.8513840777E-02  3.7633955683E-02  3.8354863915E-01
  5.7450000000E+03  2.1069182322E+00  7.5768410249E+00  3.8615898412E-02  3.7732036306E-02  3.8377180519E-01
  5.7500000000E+03  2.1091841472E+00  7.5732747245E+00  3.8718137138E-02  3.7830283256E-02  3.8399476443E-01
  5.7550000000E+03  2.1114506557E+00  7.5697132004E+00  3.8820557116E-02  3.7928696693E-02  3.8421751741E-01
  5.7600000000E+03  2.1137185770E+00  7.5661564419E+00  3.8923158510E-02  3.8027277003E-02  3.8444006469E-01
  5.7650000000E+03  2.1159869632E+00  7.5626044386E+00  3.9025941482E-02  3.8126024000E-02  3.8466240678E-01
  5.7700000000E+03  2.1182558142E+00  7.5590571799E+00  3.9128906196E-02  3.8224937804E-02  3.8488454424E-01
  5.7750000000E+03  2.1205251295E+00  7.5555457431E+00  3.9232052814E-02  3.8324019334E-02  3.8510647758E-01
  5.7800000000E+03  2.1227949088E+00  7.5520793574E+00  3.9335381498E-02  3.8423268962E-02  3.8532820735E-01
  5.7850000000E+03  2.1250651520E+00  7.5486175572E+00  3.9438892413E-02  3.8522685774E-02  3.8554973408E-01
  5.7900000000E+03  2.1273358586E+00  7.5451603327E+00  3.9542585720E-02  3.8622269888E-02  3.8577105829E-01
  5.7950000000E+03  2.1296070283E+00  7.5417076737E+00  3.9646461583E-02  3.8722021424E-02  3.8599218051E-01
  5.8000000000E+03  2.1318786609E+00  7.5382595703E+00  3.9750520163E-02  3.8821940501E-02  3.8621310127E-01
  5.8050000000E+03  2.1341507560E+00  7.5348160125E+00  3.9854761626E-02  3.8922027237E-02  3.8643382108E-01
  5.8100000000E+03  2.1364246200E+00  7.5313769906E+00  3.9959186132E-02  3.9022282186E-02  3.8665434047E-01
  5.8150000000E+03  2.1387004102E+00  7.5279424946E+00  4.0063793845E-02  3.9122705525E-02  3.8687465996E-01
  5.8200000000E+03  2.1409766654E+00  7.5245125146E+00  4.0168584927E-02  3.9223296885E-02  3.8709478006E-01
  5.8250000000E+03  2.1432533856E+00  7.5210870408E+00  4.0273559542E-02  3.9324056387E-02  3.8731470129E-01
  5.8300000000E+03  2.1455305702E+00  7.5176660636E+00  4.0378717853E-02  3.9424984146E-02  3.8753442417E-01
  5.8350000000E+03  2.1478082191E+00  7.5142495731E+00  4.0484060022E-02  3.9526080283E-02  3.8775394920E-01
  5.8400000000E+03  2.1500863319E+00  7.5108375595E+00  4.0589586213E-02  3.9627344915E-02  3.8797327689E-01
  5.8450000000E+03  2.1523649083E+00  7.5074300133E+00  4.0695296587E-02  3.9728778161E-02  3.8819240776E-01
  5.8500000000E+03  2.1546439480E+00  7.5040269247E+00  4.0801191308E-02  3.9830380138E-02  3.8841134231E-01
  5.8550000000E+03  2.1569234507E+00  7.5006282842E+00  4.0907270540E-02  3.9932150964E-02  3.8863008100E-01
  5.8600000000E+03  2.1592034162E+00  7.4972340820E+00  4.1013534444E-02  4.0034090757E-02  3.8884862438E-01
  5.8650000000E+03  2.1614835451E+00  7.4938443087E+00  4.1119983183E-02  4.0136199532E-02  3.8906697303E-01
  5.8700000000E+03  2.1637640217E+00  7.4905170410E+00  4.1226616921E-02  4.0238479146E-02  3.8928512751E-01
  5.8750000000E+03  2.1660449596E+00  7.4872044988E+00  4.1333435821E-02  4.0340928399E-02  3.8950308837E-01
  5.8800000000E+03  2.1683263586E+00  7.4838962376E+00  4.1440440045E-02  4.0443547108E-02  3.8972085618E-01
  5.8850000000E+03  2.1706082182E+00  7.4805922483E+00  4.1547629756E-02  4.0546335391E-02  3.8993843149E-01
  5.8900000000E+03  2.1728905382E+00  7.4772925217E+00  4.1655005117E-02  4.0649293367E-02  3.9015581485E-01
  5.8950000000E+03  2.1751733183E+00  7.4739970487E+00  4.1762566292E-02  4.0752421151E-02  3.9037300681E-01
  5.9000000000E+03  2.1774565581E+00  7.4707058202E+00  4.1870313442E-02  4.0855718862E-02  3.9059000793E-01
  5.9050000000E+03  2.1797402575E+00  7.4674188273E+00  4.1978246731E-02  4.0959186616E-02  3.9080681876E-01
  5.9100000000E+03  2.1820244161E+00  7.4641360607E+00  4.2086366322E-02  4.1062824531E-02  3.9102343984E-01
  5.9150000000E+03  2.1843090336E+00  7.4608575116E+00  4.2194672378E-02  4.1166632723E-02  3.9123987171E-01
  5.9200000000E+03  2.1865949531E+00  7.4575831710E+00  4.2303165062E-02  4.1270611610E-02  3.9145611492E-01
  5.9250000000E+03  2.1888814514E+00  7.4543130299E+00  4.2411844536E-02  4.1374761052E-02  3.9167217000E-01
  5.9300000000E+03  2.1911684090E+00  7.4510470793E+00  4.2520710963E-02  4.1479081125E-02  3.9188803750E-01
  5.9350000000E+03  2.1934558254E+00  7.4477853105E+00  4.2629764507E-02  4.1583571944E-02  3.9210371795E-01
  5.9400000000E+03  2.1957437005E+00  7.4445277144E+00  4.2739005331E-02  4.1688233626E-02  3.9231921189E-01
  5.9450000000E+03  2.1980320340E+00  7.4412742824E+00  4.2848433597E-02  4.1793066288E-02  3.9253451984E-01
  5.9500000000E+03  2.2003208254E+00  7.4380250055E+00  4.2958049468E-02  4.1898070046E-02  3.9274964234E-01
  5.9550000000E+03  2.2026100746E+00  7.4347798750E+00  4.3067853107E-02  4.2003245016E-02  3.9296457992E-01
  5.9600000000E+03  2.2048997813E+00  7.4315388820E+00  4.3177844678E-02  4.2108591313E-02  3.9317933310E-01
  5.9650000000E+03  2.2071899452E+00  7.4283651482E+00  4.3288024342E-02  4.2214111094E-02  3.9339390241E-01
  5.9700000000E+03  2.2094805659E+00  7.4251979414E+00  4.3398392264E-02  4.2319802537E-02  3.9360828837E-01
  5.9750000000E+03  2.2117715416E+00  7.4220347348E+00  4.3508948606E-02  4.2425665640E-02  3.9382249150E-01
  5.9800000000E+03  2.2140629658E+00  7.4188755200E+00  4.3619693531E-02  4.2531700552E-02  3.9403651232E-01
  5.9850000000E+03  2.2163548458E+00  7.4157202886E+00  4.3730627202E-02  4.2637907394E-02  3.9425035135E-01
  5.9900000000E+03  2.2186471815E+00  7.4125690323E+00  4.3841749782E-02  4.2744286279E-02  3.9446400911E-01
  5.9950000000E+03  2.2209399724E+00  7.4094217428E+00  4.3953061434E-02  4.2850837325E-02  3.9467748610E-01
  6.0000000000E+03  2.2232332183E+00  7.4062784117E+00  4.4064562321E-02  4.2957560645E-02  3.9489078284E-01
  6.0050000000E+03  2.2255269189E+00  7.4031390309E+00  4.4177008309E-02  4.3065174500E-02  3.9510389984E-01
  6.0100000000E+03  2.2278210740E+00  7.4000035920E+00  4.4289647084E-02  4.3172963793E-02  3.9531683760E-01
  6.0150000000E+03  2.2301156831E+00  7.3968720868E+00  4.4402478815E-02  4.3280928644E-02  3.9552959664E-01
  6.0200000000E+03  2.2324107461E+00  7.3937445071E+00  4.4515503672E-02  4.3389069173E-02  3.9574217746E-01
  6.0250000000E+03  2.2347062627E+00  7.3906208448E+00  4.4628721822E-02  4.3497385499E-02  3.9595458056E-01
  6.0300000000E+03  2.2370103488E+00  7.3875010917E+00  4.4742133437E-02  4.3605880826E-02  3.9616680644E-01
  6.0350000000E+03  2.2393160054E+00  7.3843852396E+00  4.4855738684E-02  4.3714552634E-02  3.9637885561E-01
  6.0400000000E+03  2.2416221259E+00  7.3812732806E+00  4.4969537733E-02  4.3823400624E-02  3.9659072855E-01
  6.0450000000E+03  2.2439287101E+00  7.3781652064E+00  4.5083530754E-02  4.3932424914E-02  3.9680242577E-01
  6.0500000000E+03  2.2462357578E+00  7.3750610090E+00  4.5197717914E-02  4.4041625624E-02  3.9701394777E-01
  6.0550000000E+03  2.2485432686E+00  7.3719606805E+00  4.5312099384E-02  4.4151002873E-02  3.9722529502E-01
  6.0600000000E+03  2.2508512423E+00  7.3689126870E+00  4.5426675333E-02  4.4260558530E-02  3.9743646803E-01
  6.0650000000E+03  2.2531596785E+00  7.3658828132E+00  4.5541445930E-02  4.4370291503E-02  3.9764746728E-01
  6.0700000000E+03  2.2554685770E+00  7.3628566806E+00  4.5656411344E-02  4.4480201394E-02  3.9785829326E-01
  6.0750000000E+03  2.2577779375E+00  7.3598342813E+00  4.5771571744E-02  4.4590288324E-02  3.9806894646E-01
  6.0800000000E+03  2.2600877597E+00  7.3568156076E+00  4.5886927300E-02  4.4700552412E-02  3.9827942736E-01
  6.0850000000E+03  2.2624402243E+00  7.3538006521E+00  4.6002478180E-02  4.4811010323E-02  3.9848973644E-01
  6.0900000000E+03  2.2648088135E+00  7.3507894069E+00  4.6118224555E-02  4.4921651886E-02  3.9869987418E-01
  6.0950000000E+03  2.2671779355E+00  7.3477818645E+00  4.6234166593E-02  4.5032471122E-02  3.9890984107E-01
  6.1000000000E+03  2.2695475900E+00  7.3447780174E+00  4.6350304464E-02  4.5143468149E-02  3.9911963758E-01
  6.1050000000E+03  2.2719177767E+00  7.3417778579E+00  4.6466638336E-02  4.5254643087E-02  3.9932926419E-01
  6.1100000000E+03  2.2742884953E+00  7.3387813785E+00  4.6583168379E-02  4.5365996055E-02  3.9953872137E-01
  6.1150000000E+03  2.2766597453E+00  7.3357885717E+00  4.6699894763E-02  4.5477527171E-02  3.9974800960E-01
  6.1200000000E+03  2.2790315267E+00  7.3327994301E+00  4.6816817657E-02  4.5589236554E-02  3.9995712934E-01
  6.1250000000E+03  2.2814038389E+00  7.3298139460E+00  4.6933937229E-02  4.5701124324E-02  4.0016608107E-01
  6.1300000000E+03  2.2837766817E+00  7.3268321121E+00  4.7051253649E-02  4.5813190597E-02  4.0037486525E-01
  6.1350000000E+03  2.2861500548E+00  7.3238539209E+00  4.7168767087E-02  4.5925435494E-02  4.0058348235E-01
  6.1400000000E+03  2.2885242297E+00  7.3208793651E+00  4.7286477712E-02  4.6037859242E-02  4.0079193284E-01
  6.1450000000E+03  2.2908992341E+00  7.3179084371E+00  4.7404385693E-02  4.6150461972E-02  4.0100021718E-01
  6.1500000000E+03  2.2932747686E+00  7.3149411297E+00  4.7522491199E-02  4.6263243682E-02  4.0120833583E-01
  6.1550000000E+03  2.2956508328E+00  7.3119937991E+00  4.7640794400E-02  4.6376205147E-02  4.0141628925E-01
  6.1600000000E+03  2.2980274265E+00  7.3090937333E+00  4.7759295466E-02  4.6489347601E-02  4.0162407790E-01
  6.1650000000E+03  2.3004045492E+00  7.3061971693E+00  4.7877994564E-02  4.6602669413E-02  4.0183170224E-01
  6.1700000000E+03  2.3027822008E+00  7.3033041001E+00  4.7996891865E-02  4.6716170700E-02  4.0203916294E-01
  6.1750000000E+03  2.3051603809E+00  7.3004145186E+00  4.8115987539E-02  4.6829851579E-02  4.0224646058E-01
  6.1800000000E+03  2.3075390892E+00  7.2975284178E+00  4.8235281754E-02  4.6943712169E-02  4.0245359566E-01
  6.1850000000E+03  2.3099183254E+00  7.2946457907E+00  4.8354774679E-02  4.7057752588E-02  4.0266056867E-01
  6.1900000000E+03  2.3122980891E+00  7.2917666302E+00  4.8474466485E-02  4.7171972952E-02  4.0286738009E-01
  6.1950000000E+03  2.3146783852E+00  7.2888909295E+00  4.8594357340E-02  4.7286373382E-02  4.0307403041E-01
  6.2000000000E+03  2.3170592464E+00  7.2860186816E+00  4.8714447415E-02  4.7400954008E-02  4.0328052010E-01
  6.2050000000E+03  2.3194406343E+00  7.2831498795E+00  4.8834736877E-02  4.7515714933E-02  4.0348684966E-01
  6.2100000000E+03  2.3218225486E+00  7.2802845164E+00  4.8955225898E-02  4.7630656272E-02  4.0369301955E-01
  6.2150000000E+03  2.3242049890E+00  7.2774225854E+00  4.9075914645E-02  4.7745778144E-02  4.0389903027E-01
  6.2200000000E+03  2.3265879552E+00  7.2745640795E+00  4.9196803289E-02  4.7861080664E-02  4.0410488227E-01
  6.2250000000E+03  2.3289714468E+00  7.2717089920E+00  4.9317891999E-02  4.7976563951E-02  4.0431057605E-01
  6.2300000000E+03  2.3313554636E+00  7.2688573161E+00  4.9439180944E-02  4.8092228121E-02  4.0451611206E-01
  6.2350000000E+03  2.3337400052E+00  7.2660090448E+00  4.9560670294E-02  4.8208073290E-02  4.0472149079E-01
  6.2400000000E+03  2.3361250715E+00  7.2631641715E+00  4.9682360218E-02  4.8324099575E-02  4.0492671270E-01
  6.2450000000E+03  2.3385106619E+00  7.2603226893E+00  4.9804250885E-02  4.8440307092E-02  4.0513177826E-01
  6.2500000000E+03  2.3408967763E+00  7.2574845915E+00  4.9926342466E-02  4.8556695958E-02  4.0533668794E-01
  6.2550000000E+03  2.3432836319E+00  7.2546762375E+00  5.0048635129E-02  4.8673267570E-02  4.0554144220E-01
  6.2600000000E+03  2.3456711262E+00  7.2519022270E+00  5.0171129044E-02  4.8790022229E-02  4.0574604151E-01
  6.2650000000E+03  2.3480591440E+00  7.2491314906E+00  5.0293824380E-02  4.8906958610E-02  4.0595048633E-01
  6.2700000000E+03  2.3504476850E+00  7.2463640221E+00  5.0416721308E-02  4.9024076831E-02  4.0615477711E-01
  6.2750000000E+03  2.3528367487E+00  7.2435998148E+00  5.0539819995E-02  4.9141377007E-02  4.0635891432E-01
  6.2800000000E+03  2.3552263350E+00  7.2408388624E+00  5.0663120613E-02  4.9258859254E-02  4.0656289842E-01
  6.2850000000E+03  2.3576164436E+00  7.2380811584E+00  5.0786623329E-02  4.9376523688E-02  4.0676672986E-01
  6.2900000000E+03  2.3600070741E+00  7.2353266964E+00  5.0910328315E-02  4.9494370425E-02  4.0697040909E-01
  6.2950000000E+03  2.3623982262E+00  7.2325754701E+00  5.1034235739E-02  4.9612399579E-02  4.0717393657E-01
  6.3000000000E+03  2.3647898996E+00  7.2298274731E+00  5.1158345770E-02  4.9730611267E-02  4.0737731275E-01
  6.3050000000E+03  2.3671820940E+00  7.2270826990E+00  5.1282658579E-02  4.9849005605E-02  4.0758053808E-01
  6.3100000000E+03  2.3695747453E+00  7.2243411416E+00  5.1407174335E-02  4.9967582678E-02  4.0778361301E-01
  6.3150000000E+03  2.3719672369E+00  7.2216027944E+00  5.1531893207E-02  5.0086342327E-02  4.0798653798E-01
  6.3200000000E+03  2.3743602477E+00  7.2188676512E+00  5.1656815364E-02  5.0205284969E-02  4.0818931345E-01
  6.3250000000E+03  2.3767537774E+00  7.2161357057E+00  5.1781940977E-02  5.0324410718E-02  4.0839193985E-01
  6.3300000000E+03  2.3791478257E+00  7.2134069517E+00  5.1907270215E-02  5.0443719689E-02  4.0859441763E-01
  6.3350000000E+03  2.3815423924E+00  7.2106813829E+00  5.2032803248E-02  5.0563211997E-02  4.0879674723E-01
  6.3400000000E+03  2.3839374771E+00  7.2079589931E+00  5.2158540244E-02  5.0682887757E-02  4.0899892909E-01
  6.3450000000E+03  2.3863330795E+00  7.2052397761E+00  5.2284481374E-02  5.0802747083E-02  4.0920096364E-01
  6.3500000000E+03  2.3887291993E+00  7.2025237256E+00  5.2410626807E-02  5.0922790089E-02  4.0940285133E-01
