#[MATERIAL DEFINITION FOR MC-GPU: interaction mean free path and sampling data from PENELOPE 2018]
#[MATERIAL NAME]
# sacrum                                                        
#[NOMINAL DENSITY (g/cm^3)]
#   1.05200000
#[NUMBER OF DATA VALUES]
#  23002
#[MEAN FREE PATHS (cm) (ie, average distance between interactions)]
#[Energy (eV)     | Rayleigh        | Compton         | Photoelectric   | TOTAL (+pair prod) (cm) | Rayleigh: max cumul prob F^2]
  5.0000000000E+03  1.9217130217E+00  7.6794857018E+00  2.3367866727E-02  2.3017929527E-02  3.2894148941E-01
  5.0050000000E+03  1.9238752743E+00  7.6755299468E+00  2.3436426402E-02  2.3084724172E-02  3.2919645752E-01
  5.0100000000E+03  1.9260377972E+00  7.6715801762E+00  2.3505117532E-02  2.3151643047E-02  3.2945119165E-01
  5.0150000000E+03  1.9282017432E+00  7.6676363750E+00  2.3573940236E-02  2.3218686415E-02  3.2970569240E-01
  5.0200000000E+03  1.9303666497E+00  7.6636985282E+00  2.3642894630E-02  2.3285854305E-02  3.2995996035E-01
  5.0250000000E+03  1.9325318280E+00  7.6597666210E+00  2.3711980832E-02  2.3353146711E-02  3.3021399610E-01
  5.0300000000E+03  1.9346972779E+00  7.6558406385E+00  2.3781198960E-02  2.3420563728E-02  3.3046780025E-01
  5.0350000000E+03  1.9368629991E+00  7.6519205659E+00  2.3850549131E-02  2.3488105451E-02  3.3072137337E-01
  5.0400000000E+03  1.9390289915E+00  7.6480063884E+00  2.3920031462E-02  2.3555771973E-02  3.3097471606E-01
  5.0450000000E+03  1.9411952548E+00  7.6440980913E+00  2.3989646072E-02  2.3623563390E-02  3.3122782890E-01
  5.0500000000E+03  1.9433617887E+00  7.6401956600E+00  2.4059393077E-02  2.3691479795E-02  3.3148071247E-01
  5.0550000000E+03  1.9455285931E+00  7.6362990798E+00  2.4129272595E-02  2.3759521282E-02  3.3173336736E-01
  5.0600000000E+03  1.9477000785E+00  7.6324083363E+00  2.4199284743E-02  2.3827688606E-02  3.3198579414E-01
  5.0650000000E+03  1.9498800361E+00  7.6285234149E+00  2.4269429640E-02  2.3895982438E-02  3.3223799338E-01
  5.0700000000E+03  1.9520602790E+00  7.6246443013E+00  2.4339707401E-02  2.3964401649E-02  3.3248996567E-01
  5.0750000000E+03  1.9542408070E+00  7.6207709809E+00  2.4410118145E-02  2.4032946333E-02  3.3274171158E-01
  5.0800000000E+03  1.9564216200E+00  7.6169034394E+00  2.4480661988E-02  2.4101616586E-02  3.3299323168E-01
  5.0850000000E+03  1.9586027176E+00  7.6131040733E+00  2.4551339049E-02  2.4170413130E-02  3.3324452654E-01
  5.0900000000E+03  1.9607840996E+00  7.6093163856E+00  2.4622149444E-02  2.4239335497E-02  3.3349559672E-01
  5.0950000000E+03  1.9629657658E+00  7.6055342985E+00  2.4693093291E-02  2.4308383721E-02  3.3374644279E-01
  5.1000000000E+03  1.9651477159E+00  7.6017577982E+00  2.4764170706E-02  2.4377557895E-02  3.3399706531E-01
  5.1050000000E+03  1.9673299497E+00  7.5979868709E+00  2.4835381808E-02  2.4446858114E-02  3.3424746485E-01
  5.1100000000E+03  1.9695153867E+00  7.5942215031E+00  2.4906726713E-02  2.4516284922E-02  3.3449764197E-01
  5.1150000000E+03  1.9717011401E+00  7.5904616811E+00  2.4978205539E-02  2.4585837969E-02  3.3474759722E-01
  5.1200000000E+03  1.9738871802E+00  7.5867073913E+00  2.5049818403E-02  2.4655517345E-02  3.3499733117E-01
  5.1250000000E+03  1.9760735065E+00  7.5829586202E+00  2.5121565421E-02  2.4725323141E-02  3.3524684436E-01
  5.1300000000E+03  1.9782601190E+00  7.5792153542E+00  2.5193446712E-02  2.4795255452E-02  3.3549613734E-01
  5.1350000000E+03  1.9804470174E+00  7.5754775801E+00  2.5265462392E-02  2.4865314371E-02  3.3574521068E-01
  5.1400000000E+03  1.9826342015E+00  7.5717452843E+00  2.5337612578E-02  2.4935499990E-02  3.3599406485E-01
  5.1450000000E+03  1.9848216709E+00  7.5680184536E+00  2.5409897388E-02  2.5005812402E-02  3.3624270017E-01
  5.1500000000E+03  1.9870094255E+00  7.5642970745E+00  2.5482316939E-02  2.5076251702E-02  3.3649111722E-01
  5.1550000000E+03  1.9891983178E+00  7.5605811340E+00  2.5554871346E-02  2.5146818117E-02  3.3673931658E-01
  5.1600000000E+03  1.9913882170E+00  7.5568706187E+00  2.5627560729E-02  2.5217511720E-02  3.3698729887E-01
  5.1650000000E+03  1.9935784026E+00  7.5532021126E+00  2.5700385203E-02  2.5288332901E-02  3.3723506467E-01
  5.1700000000E+03  1.9957688743E+00  7.5495683827E+00  2.5773344886E-02  2.5359281679E-02  3.3748261457E-01
  5.1750000000E+03  1.9979596319E+00  7.5459399111E+00  2.5846439895E-02  2.5430357816E-02  3.3772994916E-01
  5.1800000000E+03  2.0001506751E+00  7.5423166848E+00  2.5919670346E-02  2.5501561407E-02  3.3797706904E-01
  5.1850000000E+03  2.0023420038E+00  7.5386986915E+00  2.5993036357E-02  2.5572892544E-02  3.3822397478E-01
  5.1900000000E+03  2.0045336177E+00  7.5350859183E+00  2.6066538044E-02  2.5644351318E-02  3.3847066697E-01
  5.1950000000E+03  2.0067255165E+00  7.5314783529E+00  2.6140175525E-02  2.5715937822E-02  3.3871714620E-01
  5.2000000000E+03  2.0089177132E+00  7.5278759826E+00  2.6213948916E-02  2.5787652152E-02  3.3896341303E-01
  5.2050000000E+03  2.0111118207E+00  7.5242787951E+00  2.6287858334E-02  2.5859494665E-02  3.3920946805E-01
  5.2100000000E+03  2.0133062145E+00  7.5206867778E+00  2.6361903897E-02  2.5931465187E-02  3.3945531184E-01
  5.2150000000E+03  2.0155008942E+00  7.5170999184E+00  2.6436085720E-02  2.6003563810E-02  3.3970094497E-01
  5.2200000000E+03  2.0176958598E+00  7.5135182047E+00  2.6510403921E-02  2.6075790626E-02  3.3994636801E-01
  5.2250000000E+03  2.0198911108E+00  7.5099416241E+00  2.6584858617E-02  2.6148145727E-02  3.4019158152E-01
  5.2300000000E+03  2.0220866472E+00  7.5063701646E+00  2.6659449924E-02  2.6220629205E-02  3.4043658609E-01
  5.2350000000E+03  2.0242824686E+00  7.5028038139E+00  2.6734177960E-02  2.6293241152E-02  3.4068138226E-01
  5.2400000000E+03  2.0264785748E+00  7.4992425598E+00  2.6809042840E-02  2.6365981659E-02  3.4092597062E-01
  5.2450000000E+03  2.0286749656E+00  7.4956863902E+00  2.6884081472E-02  2.6438886400E-02  3.4117035172E-01
  5.2500000000E+03  2.0308747618E+00  7.4921947352E+00  2.6959412610E-02  2.6512071468E-02  3.4141452612E-01
  5.2550000000E+03  2.0330798136E+00  7.4887122993E+00  2.7034881952E-02  2.6585387238E-02  3.4165849437E-01
  5.2600000000E+03  2.0352851591E+00  7.4852347917E+00  2.7110489617E-02  2.6658832906E-02  3.4190225705E-01
  5.2650000000E+03  2.0374907980E+00  7.4817622006E+00  2.7186235724E-02  2.6732408567E-02  3.4214581469E-01
  5.2700000000E+03  2.0396967301E+00  7.4782945145E+00  2.7262120393E-02  2.6806114313E-02  3.4238916786E-01
  5.2750000000E+03  2.0419029552E+00  7.4748317218E+00  2.7338143743E-02  2.6879950240E-02  3.4263231711E-01
  5.2800000000E+03  2.0441094731E+00  7.4713738110E+00  2.7414305892E-02  2.6953916439E-02  3.4287526298E-01
  5.2850000000E+03  2.0463162835E+00  7.4679207706E+00  2.7490606961E-02  2.7028013005E-02  3.4311800602E-01
  5.2900000000E+03  2.0485233861E+00  7.4644725891E+00  2.7567047066E-02  2.7102240030E-02  3.4336054679E-01
  5.2950000000E+03  2.0507307808E+00  7.4610292550E+00  2.7643626329E-02  2.7176597607E-02  3.4360288581E-01
  5.3000000000E+03  2.0529448194E+00  7.4575907571E+00  2.7720344867E-02  2.7251086949E-02  3.4384502364E-01
  5.3050000000E+03  2.0551622315E+00  7.4541570839E+00  2.7797202801E-02  2.7325707583E-02  3.4408696082E-01
  5.3100000000E+03  2.0573799464E+00  7.4507282242E+00  2.7874200248E-02  2.7400459061E-02  3.4432869788E-01
  5.3150000000E+03  2.0595979638E+00  7.4473041667E+00  2.7951337327E-02  2.7475341476E-02  3.4457023536E-01
  5.3200000000E+03  2.0618162834E+00  7.4438849002E+00  2.8028614159E-02  2.7550354922E-02  3.4481157380E-01
  5.3250000000E+03  2.0640349050E+00  7.4404704134E+00  2.8106030861E-02  2.7625499491E-02  3.4505271373E-01
  5.3300000000E+03  2.0662538283E+00  7.4370634236E+00  2.8183587552E-02  2.7700775313E-02  3.4529365568E-01
  5.3350000000E+03  2.0684730532E+00  7.4337199213E+00  2.8261284352E-02  2.7776183265E-02  3.4553440018E-01
  5.3400000000E+03  2.0706925793E+00  7.4303810520E+00  2.8339121379E-02  2.7851722627E-02  3.4577494777E-01
  5.3450000000E+03  2.0729124065E+00  7.4270468052E+00  2.8417098752E-02  2.7927393492E-02  3.4601529896E-01
  5.3500000000E+03  2.0751344151E+00  7.4237171700E+00  2.8495216591E-02  2.8003196294E-02  3.4625545429E-01
  5.3550000000E+03  2.0773570029E+00  7.4203921358E+00  2.8573475013E-02  2.8079130838E-02  3.4649541428E-01
  5.3600000000E+03  2.0795798935E+00  7.4170716919E+00  2.8651874138E-02  2.8155197164E-02  3.4673517944E-01
  5.3650000000E+03  2.0818030868E+00  7.4137558277E+00  2.8730414084E-02  2.8231395367E-02  3.4697475030E-01
  5.3700000000E+03  2.0840265825E+00  7.4104445327E+00  2.8809094970E-02  2.8307725536E-02  3.4721412738E-01
  5.3750000000E+03  2.0862503804E+00  7.4071377963E+00  2.8887916916E-02  2.8384187766E-02  3.4745331119E-01
  5.3800000000E+03  2.0884744802E+00  7.4038356080E+00  2.8966880039E-02  2.8460782147E-02  3.4769230225E-01
  5.3850000000E+03  2.0906988818E+00  7.4005379574E+00  2.9045984459E-02  2.8537508772E-02  3.4793110108E-01
  5.3900000000E+03  2.0929235848E+00  7.3972448339E+00  2.9125230294E-02  2.8614367733E-02  3.4816970818E-01
  5.3950000000E+03  2.0951485890E+00  7.3939562272E+00  2.9204617663E-02  2.8691359121E-02  3.4840812407E-01
  5.4000000000E+03  2.0973742208E+00  7.3906721269E+00  2.9284146685E-02  2.8768483090E-02  3.4864634925E-01
  5.4050000000E+03  2.0996001610E+00  7.3873925227E+00  2.9363817478E-02  2.8845739671E-02  3.4888438423E-01
  5.4100000000E+03  2.1018264022E+00  7.3841174042E+00  2.9443630161E-02  2.8923128956E-02  3.4912222953E-01
  5.4150000000E+03  2.1040529441E+00  7.3808467612E+00  2.9523584852E-02  2.9000651035E-02  3.4935988563E-01
  5.4200000000E+03  2.1062797863E+00  7.3776329985E+00  2.9603681671E-02  2.9078306815E-02  3.4959735305E-01
  5.4250000000E+03  2.1085069288E+00  7.3744304738E+00  2.9683920736E-02  2.9156095688E-02  3.4983463228E-01
  5.4300000000E+03  2.1107343713E+00  7.3712322877E+00  2.9764302166E-02  2.9234017640E-02  3.5007172383E-01
  5.4350000000E+03  2.1129621135E+00  7.3680384303E+00  2.9844826078E-02  2.9312072762E-02  3.5030862820E-01
  5.4400000000E+03  2.1151901551E+00  7.3648488916E+00  2.9925492592E-02  2.9390261145E-02  3.5054534587E-01
  5.4450000000E+03  2.1174184961E+00  7.3616636620E+00  3.0006301826E-02  2.9468582881E-02  3.5078187735E-01
  5.4500000000E+03  2.1197037147E+00  7.3584827317E+00  3.0087253899E-02  2.9547049053E-02  3.5101822313E-01
  5.4550000000E+03  2.1219896424E+00  7.3553060909E+00  3.0168348929E-02  2.9625648911E-02  3.5125438369E-01
  5.4600000000E+03  2.1242759376E+00  7.3521337299E+00  3.0249587035E-02  2.9704382478E-02  3.5149035954E-01
  5.4650000000E+03  2.1265626000E+00  7.3489656390E+00  3.0330968336E-02  2.9783249846E-02  3.5172615116E-01
  5.4700000000E+03  2.1288496294E+00  7.3458018086E+00  3.0412492949E-02  2.9862251106E-02  3.5196175904E-01
  5.4750000000E+03  2.1311370255E+00  7.3426422291E+00  3.0494160993E-02  2.9941386350E-02  3.5219718365E-01
  5.4800000000E+03  2.1334247879E+00  7.3394868909E+00  3.0575972587E-02  3.0020655668E-02  3.5243242550E-01
  5.4850000000E+03  2.1357129165E+00  7.3363357843E+00  3.0657927849E-02  3.0100059151E-02  3.5266748506E-01
  5.4900000000E+03  2.1380014109E+00  7.3331889000E+00  3.0740026898E-02  3.0179596890E-02  3.5290236281E-01
  5.4950000000E+03  2.1402902708E+00  7.3300462284E+00  3.0822269851E-02  3.0259268976E-02  3.5313705924E-01
  5.5000000000E+03  2.1425821370E+00  7.3269077601E+00  3.0904656828E-02  3.0339076030E-02  3.5337157482E-01
  5.5050000000E+03  2.1448746074E+00  7.3237990403E+00  3.0987584818E-02  3.0419400554E-02  3.5360591002E-01
  5.5100000000E+03  2.1471674461E+00  7.3207260185E+00  3.1070658818E-02  3.0499861886E-02  3.5384006534E-01
  5.5150000000E+03  2.1494606529E+00  7.3176570718E+00  3.1153878950E-02  3.0580459578E-02  3.5407404123E-01
  5.5200000000E+03  2.1517542273E+00  7.3145921909E+00  3.1237245336E-02  3.0661193722E-02  3.5430783818E-01
  5.5250000000E+03  2.1540481692E+00  7.3115313668E+00  3.1320758098E-02  3.0742064412E-02  3.5454145665E-01
  5.5300000000E+03  2.1563424783E+00  7.3084745906E+00  3.1404417357E-02  3.0823071740E-02  3.5477489712E-01
  5.5350000000E+03  2.1586371543E+00  7.3054218531E+00  3.1488223234E-02  3.0904215800E-02  3.5500816006E-01
  5.5400000000E+03  2.1609321970E+00  7.3023731455E+00  3.1572175851E-02  3.0985496684E-02  3.5524124593E-01
  5.5450000000E+03  2.1632276060E+00  7.2993284588E+00  3.1656275330E-02  3.1066914486E-02  3.5547415519E-01
  5.5500000000E+03  2.1655268873E+00  7.2962877840E+00  3.1740521793E-02  3.1148470024E-02  3.5570688832E-01
  5.5550000000E+03  2.1678277207E+00  7.2932511122E+00  3.1824915360E-02  3.1230162915E-02  3.5593944578E-01
  5.5600000000E+03  2.1701289254E+00  7.2902184347E+00  3.1909456153E-02  3.1311993009E-02  3.5617182803E-01
  5.5650000000E+03  2.1724305010E+00  7.2871897424E+00  3.1994144294E-02  3.1393960399E-02  3.5640403553E-01
  5.5700000000E+03  2.1747324474E+00  7.2841650268E+00  3.2078979904E-02  3.1476065176E-02  3.5663606874E-01
  5.5750000000E+03  2.1770347642E+00  7.2811442788E+00  3.2163963105E-02  3.1558307434E-02  3.5686792812E-01
  5.5800000000E+03  2.1793374513E+00  7.2781274899E+00  3.2249094017E-02  3.1640687265E-02  3.5709961413E-01
  5.5850000000E+03  2.1816405082E+00  7.2751146513E+00  3.2334372764E-02  3.1723204760E-02  3.5733112722E-01
  5.5900000000E+03  2.1839439347E+00  7.2721057542E+00  3.2419799465E-02  3.1805860013E-02  3.5756246784E-01
  5.5950000000E+03  2.1862477306E+00  7.2691407301E+00  3.2505374242E-02  3.1888653884E-02  3.5779363646E-01
  5.6000000000E+03  2.1885547846E+00  7.2661943350E+00  3.2591097217E-02  3.1971586607E-02  3.5802463351E-01
  5.6050000000E+03  2.1908652929E+00  7.2632517620E+00  3.2676968511E-02  3.2054658039E-02  3.5825545946E-01
  5.6100000000E+03  2.1931761769E+00  7.2603130029E+00  3.2762988245E-02  3.2137867616E-02  3.5848611475E-01
  5.6150000000E+03  2.1954874365E+00  7.2573780493E+00  3.2849156541E-02  3.2221215432E-02  3.5871659983E-01
  5.6200000000E+03  2.1977990713E+00  7.2544468929E+00  3.2935473521E-02  3.2304701577E-02  3.5894691514E-01
  5.6250000000E+03  2.2001110811E+00  7.2515195254E+00  3.3021939304E-02  3.2388326143E-02  3.5917706113E-01
  5.6300000000E+03  2.2024234656E+00  7.2485959386E+00  3.3108554013E-02  3.2472089223E-02  3.5940703834E-01
  5.6350000000E+03  2.2047362245E+00  7.2456761241E+00  3.3195317769E-02  3.2555990907E-02  3.5963684759E-01
  5.6400000000E+03  2.2070493576E+00  7.2427600739E+00  3.3282230694E-02  3.2640031289E-02  3.5986648945E-01
  5.6450000000E+03  2.2093628646E+00  7.2398477797E+00  3.3369292907E-02  3.2724210458E-02  3.6009596439E-01
  5.6500000000E+03  2.2116769182E+00  7.2369392333E+00  3.3456504532E-02  3.2808528544E-02  3.6032527291E-01
  5.6550000000E+03  2.2139925460E+00  7.2340344267E+00  3.3543865688E-02  3.2892985867E-02  3.6055441551E-01
  5.6600000000E+03  2.2163085485E+00  7.2311333517E+00  3.3631376498E-02  3.2977582254E-02  3.6078339267E-01
  5.6650000000E+03  2.2186249255E+00  7.2282360003E+00  3.3719037082E-02  3.3062317796E-02  3.6101220488E-01
  5.6700000000E+03  2.2209416767E+00  7.2253423643E+00  3.3806847561E-02  3.3147192585E-02  3.6124085262E-01
  5.6750000000E+03  2.2232588018E+00  7.2224524357E+00  3.3894808058E-02  3.3232206712E-02  3.6146933639E-01
  5.6800000000E+03  2.2255763006E+00  7.2195662066E+00  3.3982918692E-02  3.3317360267E-02  3.6169765665E-01
  5.6850000000E+03  2.2278941728E+00  7.2167217348E+00  3.4071179585E-02  3.3402654158E-02  3.6192581391E-01
  5.6900000000E+03  2.2302124181E+00  7.2138951514E+00  3.4159590858E-02  3.3488087975E-02  3.6215380863E-01
  5.6950000000E+03  2.2325310362E+00  7.2110721563E+00  3.4248152633E-02  3.3573661504E-02  3.6238164129E-01
  5.7000000000E+03  2.2348500269E+00  7.2082527419E+00  3.4336865029E-02  3.3659374837E-02  3.6260931238E-01
  5.7050000000E+03  2.2371691653E+00  7.2054369004E+00  3.4425728170E-02  3.3745228013E-02  3.6283682236E-01
  5.7100000000E+03  2.2394885656E+00  7.2026246243E+00  3.4514742175E-02  3.3831221148E-02  3.6306417172E-01
  5.7150000000E+03  2.2418083373E+00  7.1998159059E+00  3.4603907165E-02  3.3917354358E-02  3.6329136092E-01
  5.7200000000E+03  2.2441284802E+00  7.1970107375E+00  3.4693223263E-02  3.4003627733E-02  3.6351839044E-01
  5.7250000000E+03  2.2464489939E+00  7.1942091117E+00  3.4782690588E-02  3.4090041363E-02  3.6374526075E-01
  5.7300000000E+03  2.2487698782E+00  7.1914110208E+00  3.4872309261E-02  3.4176595340E-02  3.6397197232E-01
  5.7350000000E+03  2.2510911329E+00  7.1886164574E+00  3.4962079405E-02  3.4263289752E-02  3.6419852560E-01
  5.7400000000E+03  2.2534127576E+00  7.1858254138E+00  3.5052001139E-02  3.4350124691E-02  3.6442492108E-01
  5.7450000000E+03  2.2557347521E+00  7.1830378826E+00  3.5142074585E-02  3.4437100246E-02  3.6465115922E-01
  5.7500000000E+03  2.2580571161E+00  7.1802538563E+00  3.5232299863E-02  3.4524216508E-02  3.6487724047E-01
  5.7550000000E+03  2.2603801516E+00  7.1774733276E+00  3.5322677095E-02  3.4611473637E-02  3.6510316530E-01
  5.7600000000E+03  2.2627057741E+00  7.1746962888E+00  3.5413206402E-02  3.4698872173E-02  3.6532893417E-01
  5.7650000000E+03  2.2650317683E+00  7.1719227327E+00  3.5503887904E-02  3.4786411690E-02  3.6555454755E-01
  5.7700000000E+03  2.2673581340E+00  7.1691526519E+00  3.5594721723E-02  3.4874092277E-02  3.6578000588E-01
  5.7750000000E+03  2.2696848708E+00  7.1664078049E+00  3.5685707979E-02  3.4961914542E-02  3.6600530963E-01
  5.7800000000E+03  2.2720119787E+00  7.1636946593E+00  3.5776846793E-02  3.5049878737E-02  3.6623045924E-01
  5.7850000000E+03  2.2743394572E+00  7.1609848856E+00  3.5868138286E-02  3.5137984283E-02  3.6645545518E-01
  5.7900000000E+03  2.2766673062E+00  7.1582784766E+00  3.5959582579E-02  3.5226231270E-02  3.6668029790E-01
  5.7950000000E+03  2.2789955253E+00  7.1555754253E+00  3.6051179793E-02  3.5314619785E-02  3.6690498785E-01
  5.8000000000E+03  2.2813241144E+00  7.1528757246E+00  3.6142930049E-02  3.5403149919E-02  3.6712952547E-01
  5.8050000000E+03  2.2836530730E+00  7.1501793675E+00  3.6234833467E-02  3.5491821762E-02  3.6735391122E-01
  5.8100000000E+03  2.2859831731E+00  7.1474863469E+00  3.6326890168E-02  3.5580635588E-02  3.6757814555E-01
  5.8150000000E+03  2.2883145074E+00  7.1447966559E+00  3.6419100273E-02  3.5669591513E-02  3.6780222890E-01
  5.8200000000E+03  2.2906462125E+00  7.1421102875E+00  3.6511463904E-02  3.5758689415E-02  3.6802616171E-01
  5.8250000000E+03  2.2929782881E+00  7.1394272347E+00  3.6603981179E-02  3.5847929385E-02  3.6824994444E-01
  5.8300000000E+03  2.2953107340E+00  7.1367474906E+00  3.6696652221E-02  3.5937311510E-02  3.6847357751E-01
  5.8350000000E+03  2.2976435499E+00  7.1340710483E+00  3.6789477150E-02  3.6026835881E-02  3.6869706138E-01
  5.8400000000E+03  2.2999767356E+00  7.1313979009E+00  3.6882456087E-02  3.6116502585E-02  3.6892039649E-01
  5.8450000000E+03  2.3023102908E+00  7.1287280415E+00  3.6975589152E-02  3.6206311711E-02  3.6914358326E-01
  5.8500000000E+03  2.3046442152E+00  7.1260614632E+00  3.7068876467E-02  3.6296263348E-02  3.6936662215E-01
  5.8550000000E+03  2.3069785086E+00  7.1233981593E+00  3.7162318151E-02  3.6386357584E-02  3.6958951358E-01
  5.8600000000E+03  2.3093131707E+00  7.1207381230E+00  3.7255914326E-02  3.6476594508E-02  3.6981225799E-01
  5.8650000000E+03  2.3116479858E+00  7.1180813473E+00  3.7349665112E-02  3.6566974155E-02  3.7003485582E-01
  5.8700000000E+03  2.3139830867E+00  7.1154683850E+00  3.7443570630E-02  3.6657497721E-02  3.7025730750E-01
  5.8750000000E+03  2.3163185552E+00  7.1128658798E+00  3.7537631000E-02  3.6748164444E-02  3.7047961346E-01
  5.8800000000E+03  2.3186543910E+00  7.1102665392E+00  3.7631846343E-02  3.6838974220E-02  3.7070177412E-01
  5.8850000000E+03  2.3209905940E+00  7.1076703567E+00  3.7726216780E-02  3.6929927136E-02  3.7092378993E-01
  5.8900000000E+03  2.3233271638E+00  7.1050773258E+00  3.7820742432E-02  3.7021023282E-02  3.7114566130E-01
  5.8950000000E+03  2.3256641002E+00  7.1024874399E+00  3.7915423418E-02  3.7112262744E-02  3.7136738867E-01
  5.9000000000E+03  2.3280014029E+00  7.0999006926E+00  3.8010259860E-02  3.7203645611E-02  3.7158897246E-01
  5.9050000000E+03  2.3303390718E+00  7.0973170775E+00  3.8105251877E-02  3.7295171970E-02  3.7181041309E-01
  5.9100000000E+03  2.3326771064E+00  7.0947365880E+00  3.8200399591E-02  3.7386841910E-02  3.7203171099E-01
  5.9150000000E+03  2.3350155067E+00  7.0921592179E+00  3.8295703122E-02  3.7478655518E-02  3.7225286658E-01
  5.9200000000E+03  2.3373560108E+00  7.0895849606E+00  3.8391162591E-02  3.7570613330E-02  3.7247388028E-01
  5.9250000000E+03  2.3396971282E+00  7.0870138098E+00  3.8486778118E-02  3.7662715052E-02  3.7269475251E-01
  5.9300000000E+03  2.3420386127E+00  7.0844457591E+00  3.8582549823E-02  3.7754960708E-02  3.7291548369E-01
  5.9350000000E+03  2.3443804641E+00  7.0818808022E+00  3.8678477827E-02  3.7847350386E-02  3.7313607424E-01
  5.9400000000E+03  2.3467226821E+00  7.0793189327E+00  3.8774562251E-02  3.7939884172E-02  3.7335652458E-01
  5.9450000000E+03  2.3490652665E+00  7.0767601444E+00  3.8870803214E-02  3.8032562154E-02  3.7357683511E-01
  5.9500000000E+03  2.3514082170E+00  7.0742044309E+00  3.8967200838E-02  3.8125384419E-02  3.7379700626E-01
  5.9550000000E+03  2.3537515334E+00  7.0716517859E+00  3.9063755242E-02  3.8218351054E-02  3.7401703844E-01
  5.9600000000E+03  2.3560952154E+00  7.0691022033E+00  3.9160466548E-02  3.8311462146E-02  3.7423693206E-01
  5.9650000000E+03  2.3584392627E+00  7.0665996339E+00  3.9257334875E-02  3.8404719080E-02  3.7445668753E-01
  5.9700000000E+03  2.3607836752E+00  7.0641017969E+00  3.9354360343E-02  3.8498120709E-02  3.7467630526E-01
  5.9750000000E+03  2.3631373258E+00  7.0616069328E+00  3.9451543075E-02  3.8591669435E-02  3.7489578566E-01
  5.9800000000E+03  2.3654920196E+00  7.0591150356E+00  3.9548883188E-02  3.8685363174E-02  3.7511512914E-01
  5.9850000000E+03  2.3678470887E+00  7.0566260994E+00  3.9646380805E-02  3.8779201834E-02  3.7533433611E-01
  5.9900000000E+03  2.3702025329E+00  7.0541401180E+00  3.9744036045E-02  3.8873185502E-02  3.7555340697E-01
  5.9950000000E+03  2.3725583519E+00  7.0516570855E+00  3.9841849028E-02  3.8967314265E-02  3.7577234213E-01
  6.0000000000E+03  2.3749145456E+00  7.0491769961E+00  3.9939819876E-02  3.9061588209E-02  3.7599114199E-01
  6.0050000000E+03  2.3772711135E+00  7.0466998437E+00  4.0038724118E-02  3.9156749047E-02  3.7620980695E-01
  6.0100000000E+03  2.3796280556E+00  7.0442256224E+00  4.0137789694E-02  3.9252058208E-02  3.7642833742E-01
  6.0150000000E+03  2.3819853715E+00  7.0417543263E+00  4.0237016730E-02  3.9347515785E-02  3.7664673379E-01
  6.0200000000E+03  2.3843430610E+00  7.0392859496E+00  4.0336405352E-02  3.9443121867E-02  3.7686499647E-01
  6.0250000000E+03  2.3867011238E+00  7.0368204863E+00  4.0435955686E-02  3.9538876545E-02  3.7708312585E-01
  6.0300000000E+03  2.3890654278E+00  7.0343579307E+00  4.0535667857E-02  3.9634781526E-02  3.7730112234E-01
  6.0350000000E+03  2.3914309120E+00  7.0318982768E+00  4.0635541993E-02  3.9730835517E-02  3.7751898633E-01
  6.0400000000E+03  2.3937967764E+00  7.0294415189E+00  4.0735578219E-02  3.9827038388E-02  3.7773671821E-01
  6.0450000000E+03  2.3961630208E+00  7.0269876512E+00  4.0835776661E-02  3.9923390232E-02  3.7795431838E-01
  6.0500000000E+03  2.3985296450E+00  7.0245366678E+00  4.0936137445E-02  4.0019891137E-02  3.7817178724E-01
  6.0550000000E+03  2.4008966486E+00  7.0220885631E+00  4.1036660698E-02  4.0116541194E-02  3.7838912517E-01
  6.0600000000E+03  2.4032640314E+00  7.0196770493E+00  4.1137346545E-02  4.0213341601E-02  3.7860633257E-01
  6.0650000000E+03  2.4056317932E+00  7.0172783320E+00  4.1238195112E-02  4.0310291680E-02  3.7882340983E-01
  6.0700000000E+03  2.4079999337E+00  7.0148824100E+00  4.1339206526E-02  4.0407391196E-02  3.7904035735E-01
  6.0750000000E+03  2.4103684527E+00  7.0124892778E+00  4.1440380911E-02  4.0504640238E-02  3.7925717550E-01
  6.0800000000E+03  2.4127373499E+00  7.0100989299E+00  4.1541718395E-02  4.0602038898E-02  3.7947386471E-01
  6.0850000000E+03  2.4151390270E+00  7.0077113607E+00  4.1643219104E-02  4.0699596465E-02  3.7969042566E-01
  6.0900000000E+03  2.4175531105E+00  7.0053265648E+00  4.1744883162E-02  4.0797307307E-02  3.7990685883E-01
  6.0950000000E+03  2.4199676229E+00  7.0029445366E+00  4.1846710697E-02  4.0895168122E-02  3.8012316462E-01
  6.1000000000E+03  2.4223825639E+00  7.0005652706E+00  4.1948701833E-02  4.0993178998E-02  3.8033934341E-01
  6.1050000000E+03  2.4247979332E+00  6.9981887614E+00  4.2050856698E-02  4.1091340027E-02  3.8055539560E-01
  6.1100000000E+03  2.4272137305E+00  6.9958150035E+00  4.2153175416E-02  4.1189651299E-02  3.8077132158E-01
  6.1150000000E+03  2.4296299556E+00  6.9934439916E+00  4.2255658115E-02  4.1288112902E-02  3.8098712174E-01
  6.1200000000E+03  2.4320466082E+00  6.9910757202E+00  4.2358304919E-02  4.1386724927E-02  3.8120279649E-01
  6.1250000000E+03  2.4344636880E+00  6.9887101838E+00  4.2461115954E-02  4.1485487464E-02  3.8141834619E-01
  6.1300000000E+03  2.4368811948E+00  6.9863473771E+00  4.2564091347E-02  4.1584400601E-02  3.8163377125E-01
  6.1350000000E+03  2.4392991282E+00  6.9839872948E+00  4.2667231223E-02  4.1683464429E-02  3.8184907204E-01
  6.1400000000E+03  2.4417173732E+00  6.9816299314E+00  4.2770535708E-02  4.1782679004E-02  3.8206424897E-01
  6.1450000000E+03  2.4441359177E+00  6.9792752816E+00  4.2874004929E-02  4.1882044410E-02  3.8227930240E-01
  6.1500000000E+03  2.4465548877E+00  6.9769233402E+00  4.2977639010E-02  4.1981560773E-02  3.8249423273E-01
  6.1550000000E+03  2.4489742831E+00  6.9745854898E+00  4.3081438078E-02  4.2081228599E-02  3.8270904034E-01
  6.1600000000E+03  2.4513941035E+00  6.9722807247E+00  4.3185402258E-02  4.2181048677E-02  3.8292372561E-01
  6.1650000000E+03  2.4538143486E+00  6.9699785902E+00  4.3289531676E-02  4.2281019995E-02  3.8313828893E-01
  6.1700000000E+03  2.4562350182E+00  6.9676790813E+00  4.3393826458E-02  4.2381142641E-02  3.8335273067E-01
  6.1750000000E+03  2.4586561121E+00  6.9653821929E+00  4.3498286730E-02  4.2481416705E-02  3.8356705122E-01
  6.1800000000E+03  2.4610776299E+00  6.9630879197E+00  4.3602912618E-02  4.2581842275E-02  3.8378125095E-01
  6.1850000000E+03  2.4634995714E+00  6.9607962568E+00  4.3707704247E-02  4.2682419440E-02  3.8399533024E-01
  6.1900000000E+03  2.4659219363E+00  6.9585071991E+00  4.3812661743E-02  4.2783148288E-02  3.8420928947E-01
  6.1950000000E+03  2.4683447141E+00  6.9562207414E+00  4.3917785231E-02  4.2884028906E-02  3.8442312902E-01
  6.2000000000E+03  2.4707678383E+00  6.9539368788E+00  4.4023074839E-02  4.2985061361E-02  3.8463684925E-01
  6.2050000000E+03  2.4731913850E+00  6.9516556063E+00  4.4128530690E-02  4.3086245765E-02  3.8485045055E-01
  6.2100000000E+03  2.4756153539E+00  6.9493769187E+00  4.4234152911E-02  4.3187582206E-02  3.8506393329E-01
  6.2150000000E+03  2.4780397448E+00  6.9471008110E+00  4.4339941628E-02  4.3289070773E-02  3.8527729783E-01
  6.2200000000E+03  2.4804645575E+00  6.9448272784E+00  4.4445896966E-02  4.3390711554E-02  3.8549054456E-01
  6.2250000000E+03  2.4828897915E+00  6.9425563158E+00  4.4552019051E-02  4.3492504637E-02  3.8570367384E-01
  6.2300000000E+03  2.4853154468E+00  6.9402879183E+00  4.4658308008E-02  4.3594450110E-02  3.8591668604E-01
  6.2350000000E+03  2.4877415229E+00  6.9380220808E+00  4.4764763964E-02  4.3696548060E-02  3.8612958153E-01
  6.2400000000E+03  2.4901680198E+00  6.9357587985E+00  4.4871387044E-02  4.3798798577E-02  3.8634236068E-01
  6.2450000000E+03  2.4925949370E+00  6.9334980664E+00  4.4978177373E-02  4.3901201747E-02  3.8655502385E-01
  6.2500000000E+03  2.4950222743E+00  6.9312398796E+00  4.5085135077E-02  4.4003757658E-02  3.8676757142E-01
  6.2550000000E+03  2.4974504134E+00  6.9290025921E+00  4.5192260282E-02  4.4106467261E-02  3.8698000374E-01
  6.2600000000E+03  2.4998791747E+00  6.9267894101E+00  4.5299553113E-02  4.4209330731E-02  3.8719232119E-01
  6.2650000000E+03  2.5023083560E+00  6.9245787013E+00  4.5407013696E-02  4.4312347221E-02  3.8740452412E-01
  6.2700000000E+03  2.5047379571E+00  6.9223704607E+00  4.5514642157E-02  4.4415516819E-02  3.8761661290E-01
  6.2750000000E+03  2.5071679776E+00  6.9201646838E+00  4.5622438620E-02  4.4518839612E-02  3.8782858789E-01
  6.2800000000E+03  2.5095984173E+00  6.9179613658E+00  4.5730403212E-02  4.4622315686E-02  3.8804044946E-01
  6.2850000000E+03  2.5120292760E+00  6.9157605020E+00  4.5838536059E-02  4.4725945131E-02  3.8825219795E-01
  6.2900000000E+03  2.5144605534E+00  6.9135620877E+00  4.5946837284E-02  4.4829728031E-02  3.8846383374E-01
  6.2950000000E+03  2.5168922493E+00  6.9113661183E+00  4.6055307015E-02  4.4933664476E-02  3.8867535718E-01
  6.3000000000E+03  2.5193243633E+00  6.9091725891E+00  4.6163945377E-02  4.5037754551E-02  3.8888676862E-01
  6.3050000000E+03  2.5217568952E+00  6.9069814955E+00  4.6272752495E-02  4.5141998343E-02  3.8909806843E-01
  6.3100000000E+03  2.5241898393E+00  6.9047928328E+00  4.6381728494E-02  4.5246395939E-02  3.8930925696E-01
  6.3150000000E+03  2.5266231436E+00  6.9026065964E+00  4.6490873501E-02  4.5350947406E-02  3.8952033457E-01
  6.3200000000E+03  2.5290568650E+00  6.9004227817E+00  4.6600187640E-02  4.5455652852E-02  3.8973130161E-01
  6.3250000000E+03  2.5314910031E+00  6.8982413841E+00  4.6709671037E-02  4.5560512361E-02  3.8994215844E-01
  6.3300000000E+03  2.5339255578E+00  6.8960623990E+00  4.6819323818E-02  4.5665526021E-02  3.9015290541E-01
  6.3350000000E+03  2.5363605288E+00  6.8938858219E+00  4.6929146108E-02  4.5770693918E-02  3.9036354286E-01
  6.3400000000E+03  2.5387959158E+00  6.8917116481E+00  4.7039138032E-02  4.5876016139E-02  3.9057407116E-01
  6.3450000000E+03  2.5412317186E+00  6.8895398732E+00  4.7149299716E-02  4.5981492769E-02  3.9078449065E-01
  6.3500000000E+03  2.5436679369E+00  6.8873704927E+00  4.7259631285E-02  4.6087123895E-02  3.9099480169E-01
