#[MATERIAL DEFINITION FOR MC-GPU: interaction mean free path and sampling data from PENELOPE 2018]
#[MATERIAL NAME]
# breast_glandular                                              
#[NOMINAL DENSITY (g/cm^3)]
#   1.02000000
#[NUMBER OF DATA VALUES]
#  23002
#[MEAN FREE PATHS (cm) (ie, average distance between interactions)]
#[Energy (eV)     | Rayleigh        | Compton         | Photoelectric   | TOTAL (+pair prod) (cm) | Rayleigh: max cumul prob F^2]
  5.0000000000E+03  2.1699660849E+00  7.6479756845E+00  3.5334094809E-02  3.4610618462E-02  3.4636990712E-01
  5.0050000000E+03  2.1725413495E+00  7.6441495999E+00  3.5442403088E-02  3.4715109777E-02  3.4662566023E-01
  5.0100000000E+03  2.1751170944E+00  7.6403292469E+00  3.5550934663E-02  3.4819807818E-02  3.4688115989E-01
  5.0150000000E+03  2.1776949606E+00  7.6365146111E+00  3.5659689770E-02  3.4924713185E-02  3.4713640678E-01
  5.0200000000E+03  2.1802742900E+00  7.6327056784E+00  3.5768668646E-02  3.5029825895E-02  3.4739140156E-01
  5.0250000000E+03  2.1828541021E+00  7.6289024345E+00  3.5877871528E-02  3.5135145874E-02  3.4764614492E-01
  5.0300000000E+03  2.1854343966E+00  7.6251048654E+00  3.5987298652E-02  3.5240673303E-02  3.4790063752E-01
  5.0350000000E+03  2.1880151729E+00  7.6213129568E+00  3.6096950256E-02  3.5346408361E-02  3.4815488002E-01
  5.0400000000E+03  2.1905964308E+00  7.6175266948E+00  3.6206826575E-02  3.5452351228E-02  3.4840887310E-01
  5.0450000000E+03  2.1931781698E+00  7.6137460654E+00  3.6316927847E-02  3.5558502081E-02  3.4866261740E-01
  5.0500000000E+03  2.1957603895E+00  7.6099710546E+00  3.6427254308E-02  3.5664861101E-02  3.4891611359E-01
  5.0550000000E+03  2.1983430897E+00  7.6062016485E+00  3.6537806196E-02  3.5771428466E-02  3.4916936232E-01
  5.0600000000E+03  2.2009263614E+00  7.6024378333E+00  3.6648583746E-02  3.5878204378E-02  3.4942236425E-01
  5.0650000000E+03  2.2035102832E+00  7.5986795952E+00  3.6759587196E-02  3.5985189039E-02  3.4967512004E-01
  5.0700000000E+03  2.2060946845E+00  7.5949269203E+00  3.6870816783E-02  3.6092382580E-02  3.4992763032E-01
  5.0750000000E+03  2.2086795650E+00  7.5911797950E+00  3.6982272743E-02  3.6199785181E-02  3.5017989575E-01
  5.0800000000E+03  2.2112649243E+00  7.5874382057E+00  3.7093955313E-02  3.6307397020E-02  3.5043191697E-01
  5.0850000000E+03  2.2138507620E+00  7.5837656173E+00  3.7205864731E-02  3.6415219738E-02  3.5068369462E-01
  5.0900000000E+03  2.2164370777E+00  7.5801045690E+00  3.7318001232E-02  3.6523252209E-02  3.5093522934E-01
  5.0950000000E+03  2.2190238712E+00  7.5764488800E+00  3.7430365054E-02  3.6631494471E-02  3.5118652178E-01
  5.1000000000E+03  2.2216111418E+00  7.5727985372E+00  3.7542956434E-02  3.6739946701E-02  3.5143757257E-01
  5.1050000000E+03  2.2241988894E+00  7.5691535276E+00  3.7655775608E-02  3.6848609077E-02  3.5168838233E-01
  5.1100000000E+03  2.2267869057E+00  7.5655138382E+00  3.7768822814E-02  3.6957481719E-02  3.5193895171E-01
  5.1150000000E+03  2.2293753956E+00  7.5618794560E+00  3.7882098289E-02  3.7066564861E-02  3.5218928132E-01
  5.1200000000E+03  2.2319643611E+00  7.5582503680E+00  3.7995602269E-02  3.7175858679E-02  3.5243937181E-01
  5.1250000000E+03  2.2345538016E+00  7.5546265615E+00  3.8109334991E-02  3.7285363352E-02  3.5268922378E-01
  5.1300000000E+03  2.2371437169E+00  7.5510080236E+00  3.8223296693E-02  3.7395079057E-02  3.5293883787E-01
  5.1350000000E+03  2.2397341065E+00  7.5473947415E+00  3.8337487611E-02  3.7505005969E-02  3.5318821470E-01
  5.1400000000E+03  2.2423249701E+00  7.5437867024E+00  3.8451907983E-02  3.7615144267E-02  3.5343735487E-01
  5.1450000000E+03  2.2449163073E+00  7.5401838938E+00  3.8566558045E-02  3.7725494125E-02  3.5368625902E-01
  5.1500000000E+03  2.2475081178E+00  7.5365863028E+00  3.8681438034E-02  3.7836055721E-02  3.5393492775E-01
  5.1550000000E+03  2.2501005359E+00  7.5329939170E+00  3.8796548188E-02  3.7946829270E-02  3.5418336167E-01
  5.1600000000E+03  2.2526935406E+00  7.5294067237E+00  3.8911888743E-02  3.8057814942E-02  3.5443156143E-01
  5.1650000000E+03  2.2552870178E+00  7.5258618051E+00  3.9027459937E-02  3.8169013834E-02  3.5467952787E-01
  5.1700000000E+03  2.2578809671E+00  7.5223518323E+00  3.9143262007E-02  3.8280425953E-02  3.5492726168E-01
  5.1750000000E+03  2.2604753881E+00  7.5188468870E+00  3.9259295189E-02  3.8392050710E-02  3.5517476354E-01
  5.1800000000E+03  2.2630702803E+00  7.5153469573E+00  3.9375559722E-02  3.8503888282E-02  3.5542203411E-01
  5.1850000000E+03  2.2656656436E+00  7.5118520311E+00  3.9492055841E-02  3.8615938843E-02  3.5566907406E-01
  5.1900000000E+03  2.2682614774E+00  7.5083620964E+00  3.9608783785E-02  3.8728202569E-02  3.5591588404E-01
  5.1950000000E+03  2.2708577815E+00  7.5048771413E+00  3.9725743790E-02  3.8840679636E-02  3.5616246473E-01
  5.2000000000E+03  2.2734545734E+00  7.5013971539E+00  3.9842936093E-02  3.8953370224E-02  3.5640881676E-01
  5.2050000000E+03  2.2760540695E+00  7.4979221224E+00  3.9960360932E-02  3.9066275161E-02  3.5665494081E-01
  5.2100000000E+03  2.2786540377E+00  7.4944520349E+00  4.0078018545E-02  3.9179393969E-02  3.5690083751E-01
  5.2150000000E+03  2.2812544776E+00  7.4909868798E+00  4.0195909167E-02  3.9292726823E-02  3.5714650753E-01
  5.2200000000E+03  2.2838553889E+00  7.4875266452E+00  4.0314033036E-02  3.9406273897E-02  3.5739195151E-01
  5.2250000000E+03  2.2864567712E+00  7.4840713194E+00  4.0432390391E-02  3.9520035367E-02  3.5763717008E-01
  5.2300000000E+03  2.2890586242E+00  7.4806208909E+00  4.0550981467E-02  3.9634011406E-02  3.5788216391E-01
  5.2350000000E+03  2.2916609474E+00  7.4771753480E+00  4.0669806502E-02  3.9748202188E-02  3.5812693362E-01
  5.2400000000E+03  2.2942637405E+00  7.4737346791E+00  4.0788865733E-02  3.9862607888E-02  3.5837147985E-01
  5.2450000000E+03  2.2968670031E+00  7.4702988728E+00  4.0908159398E-02  3.9977228680E-02  3.5861580324E-01
  5.2500000000E+03  2.2994753904E+00  7.4669279542E+00  4.1027687734E-02  4.0092067883E-02  3.5885990442E-01
  5.2550000000E+03  2.3020916629E+00  7.4635660775E+00  4.1147450979E-02  4.0207124943E-02  3.5910378403E-01
  5.2600000000E+03  2.3047084197E+00  7.4602089094E+00  4.1267449369E-02  4.0322397667E-02  3.5934744268E-01
  5.2650000000E+03  2.3073256605E+00  7.4568564389E+00  4.1387683142E-02  4.0437886229E-02  3.5959088102E-01
  5.2700000000E+03  2.3099433849E+00  7.4535086551E+00  4.1508152535E-02  4.0553590802E-02  3.5983409966E-01
  5.2750000000E+03  2.3125615925E+00  7.4501655469E+00  4.1628857786E-02  4.0669511561E-02  3.6007709922E-01
  5.2800000000E+03  2.3151802830E+00  7.4468271034E+00  4.1749799132E-02  4.0785648678E-02  3.6031988032E-01
  5.2850000000E+03  2.3177994559E+00  7.4434933136E+00  4.1870976811E-02  4.0902002326E-02  3.6056244359E-01
  5.2900000000E+03  2.3204191110E+00  7.4401641667E+00  4.1992391059E-02  4.1018572678E-02  3.6080478963E-01
  5.2950000000E+03  2.3230392478E+00  7.4368396518E+00  4.2114042115E-02  4.1135359908E-02  3.6104691906E-01
  5.3000000000E+03  2.3256595727E+00  7.4335197581E+00  4.2235930215E-02  4.1252364095E-02  3.6128883249E-01
  5.3050000000E+03  2.3282802363E+00  7.4302044749E+00  4.2358055598E-02  4.1369585459E-02  3.6153053053E-01
  5.3100000000E+03  2.3309013800E+00  7.4268937914E+00  4.2480418500E-02  4.1487024217E-02  3.6177201379E-01
  5.3150000000E+03  2.3335230034E+00  7.4235876969E+00  4.2603019160E-02  4.1604680540E-02  3.6201328287E-01
  5.3200000000E+03  2.3361451061E+00  7.4202861807E+00  4.2725857814E-02  4.1722554602E-02  3.6225433836E-01
  5.3250000000E+03  2.3387676879E+00  7.4169892322E+00  4.2848934700E-02  4.1840646573E-02  3.6249518088E-01
  5.3300000000E+03  2.3413907483E+00  7.4136995864E+00  4.2972250056E-02  4.1958956714E-02  3.6273581102E-01
  5.3350000000E+03  2.3440142869E+00  7.4104735879E+00  4.3095804119E-02  4.2077487016E-02  3.6297622937E-01
  5.3400000000E+03  2.3466383035E+00  7.4072520131E+00  4.3219597127E-02  4.2196235764E-02  3.6321643654E-01
  5.3450000000E+03  2.3492627976E+00  7.4040348520E+00  4.3343629317E-02  4.2315203132E-02  3.6345643310E-01
  5.3500000000E+03  2.3518878576E+00  7.4008220942E+00  4.3467900928E-02  4.2434389319E-02  3.6369621966E-01
  5.3550000000E+03  2.3545134077E+00  7.3976137298E+00  4.3592412195E-02  4.2553794472E-02  3.6393579680E-01
  5.3600000000E+03  2.3571394343E+00  7.3944097486E+00  4.3717163358E-02  4.2673418758E-02  3.6417516510E-01
  5.3650000000E+03  2.3597659372E+00  7.3912101405E+00  4.3842154653E-02  4.2793262349E-02  3.6441432515E-01
  5.3700000000E+03  2.3623929160E+00  7.3880148955E+00  4.3967386319E-02  4.2913325414E-02  3.6465327752E-01
  5.3750000000E+03  2.3650203703E+00  7.3848240036E+00  4.4092858592E-02  4.3033608124E-02  3.6489202281E-01
  5.3800000000E+03  2.3676482998E+00  7.3816374548E+00  4.4218571711E-02  4.3154110651E-02  3.6513056159E-01
  5.3850000000E+03  2.3702767041E+00  7.3784552392E+00  4.4344525913E-02  4.3274833164E-02  3.6536889442E-01
  5.3900000000E+03  2.3729055829E+00  7.3752773469E+00  4.4470721437E-02  4.3395775833E-02  3.6560702190E-01
  5.3950000000E+03  2.3755349357E+00  7.3721037680E+00  4.4597158519E-02  4.3516938830E-02  3.6584494458E-01
  5.4000000000E+03  2.3781645170E+00  7.3689344926E+00  4.4723837397E-02  4.3638322241E-02  3.6608266303E-01
  5.4050000000E+03  2.3807945658E+00  7.3657695109E+00  4.4850758309E-02  4.3759926315E-02  3.6632017784E-01
  5.4100000000E+03  2.3834250874E+00  7.3626088133E+00  4.4977921493E-02  4.3881751225E-02  3.6655748955E-01
  5.4150000000E+03  2.3860560813E+00  7.3594523898E+00  4.5105327186E-02  4.4003797141E-02  3.6679459874E-01
  5.4200000000E+03  2.3886875473E+00  7.3563527777E+00  4.5232975627E-02  4.4126066121E-02  3.6703150597E-01
  5.4250000000E+03  2.3913194849E+00  7.3532642222E+00  4.5360867053E-02  4.4248556716E-02  3.6726821180E-01
  5.4300000000E+03  2.3939518938E+00  7.3501798068E+00  4.5489001701E-02  4.4371268847E-02  3.6750471678E-01
  5.4350000000E+03  2.3965847737E+00  7.3470995224E+00  4.5617379810E-02  4.4494202683E-02  3.6774102147E-01
  5.4400000000E+03  2.3992181243E+00  7.3440233594E+00  4.5746001618E-02  4.4617358394E-02  3.6797712643E-01
  5.4450000000E+03  2.4018519451E+00  7.3409513088E+00  4.5874867362E-02  4.4740736149E-02  3.6821303221E-01
  5.4500000000E+03  2.4045544649E+00  7.3378833610E+00  4.6003977280E-02  4.4864359868E-02  3.6844873936E-01
  5.4550000000E+03  2.4072579552E+00  7.3348195071E+00  4.6133331609E-02  4.4988206299E-02  3.6868424843E-01
  5.4600000000E+03  2.4099620040E+00  7.3317597377E+00  4.6262930589E-02  4.5112275469E-02  3.6891955997E-01
  5.4650000000E+03  2.4126666111E+00  7.3287040436E+00  4.6392774456E-02  4.5236567547E-02  3.6915467451E-01
  5.4700000000E+03  2.4153717759E+00  7.3256524157E+00  4.6522863449E-02  4.5361082701E-02  3.6938959262E-01
  5.4750000000E+03  2.4180774980E+00  7.3226048449E+00  4.6653197805E-02  4.5485821100E-02  3.6962431482E-01
  5.4800000000E+03  2.4207837772E+00  7.3195613222E+00  4.6783777762E-02  4.5610782913E-02  3.6985884166E-01
  5.4850000000E+03  2.4234906129E+00  7.3165218383E+00  4.6914603559E-02  4.5735968308E-02  3.7009317368E-01
  5.4900000000E+03  2.4261980048E+00  7.3134863844E+00  4.7045675433E-02  4.5861377454E-02  3.7032731140E-01
  5.4950000000E+03  2.4289059525E+00  7.3104549513E+00  4.7176993622E-02  4.5987010518E-02  3.7056125538E-01
  5.5000000000E+03  2.4316174539E+00  7.3074275302E+00  4.7308558364E-02  4.6112868747E-02  3.7079500614E-01
  5.5050000000E+03  2.4343297824E+00  7.3044296525E+00  4.7440988318E-02  4.6239539854E-02  3.7102856420E-01
  5.5100000000E+03  2.4370426697E+00  7.3014672662E+00  4.7573668189E-02  4.6366439297E-02  3.7126193011E-01
  5.5150000000E+03  2.4397561156E+00  7.2985087667E+00  4.7706598220E-02  4.6493565988E-02  3.7149510440E-01
  5.5200000000E+03  2.4424701197E+00  7.2955541453E+00  4.7839778657E-02  4.6620920102E-02  3.7172808773E-01
  5.5250000000E+03  2.4451846815E+00  7.2926033934E+00  4.7973209742E-02  4.6748501809E-02  3.7196088073E-01
  5.5300000000E+03  2.4478998007E+00  7.2896565026E+00  4.8106891721E-02  4.6876311282E-02  3.7219348398E-01
  5.5350000000E+03  2.4506154768E+00  7.2867134642E+00  4.8240824837E-02  4.7004348693E-02  3.7242589808E-01
  5.5400000000E+03  2.4533317096E+00  7.2837742698E+00  4.8375009334E-02  4.7132614213E-02  3.7265812359E-01
  5.5450000000E+03  2.4560484985E+00  7.2808389108E+00  4.8509445456E-02  4.7261108014E-02  3.7289016111E-01
  5.5500000000E+03  2.4587658058E+00  7.2779073789E+00  4.8644133448E-02  4.7389830254E-02  3.7312201122E-01
  5.5550000000E+03  2.4614836558E+00  7.2749796655E+00  4.8779073554E-02  4.7518781112E-02  3.7335367448E-01
  5.5600000000E+03  2.4642020608E+00  7.2720557623E+00  4.8914266018E-02  4.7647960764E-02  3.7358515147E-01
  5.5650000000E+03  2.4669210204E+00  7.2691356609E+00  4.9049711083E-02  4.7777369382E-02  3.7381644277E-01
  5.5700000000E+03  2.4696405342E+00  7.2662193529E+00  4.9185408996E-02  4.7907007136E-02  3.7404754895E-01
  5.5750000000E+03  2.4723606018E+00  7.2633068301E+00  4.9321359998E-02  4.8036874197E-02  3.7427847057E-01
  5.5800000000E+03  2.4750812229E+00  7.2603980840E+00  4.9457564336E-02  4.8166970734E-02  3.7450920820E-01
  5.5850000000E+03  2.4778023970E+00  7.2574931065E+00  4.9594022253E-02  4.8297296920E-02  3.7473976241E-01
  5.5900000000E+03  2.4805241237E+00  7.2545918893E+00  4.9730733993E-02  4.8427852922E-02  3.7497013376E-01
  5.5950000000E+03  2.4832464028E+00  7.2517343383E+00  4.9867699801E-02  4.8558640703E-02  3.7520032282E-01
  5.6000000000E+03  2.4859691468E+00  7.2488952276E+00  5.0004919921E-02  4.8689659292E-02  3.7543033013E-01
  5.6050000000E+03  2.4886923497E+00  7.2460597607E+00  5.0142394597E-02  4.8820908199E-02  3.7566015626E-01
  5.6100000000E+03  2.4914161034E+00  7.2432279297E+00  5.0280124074E-02  4.8952387630E-02  3.7588980176E-01
  5.6150000000E+03  2.4941404076E+00  7.2403997268E+00  5.0418108596E-02  4.9084097752E-02  3.7611926718E-01
  5.6200000000E+03  2.4968652621E+00  7.2375751440E+00  5.0556348407E-02  4.9216038736E-02  3.7634855309E-01
  5.6250000000E+03  2.4995906662E+00  7.2347541735E+00  5.0694843753E-02  4.9348210751E-02  3.7657766002E-01
  5.6300000000E+03  2.5023166198E+00  7.2319368074E+00  5.0833594876E-02  4.9480613966E-02  3.7680658852E-01
  5.6350000000E+03  2.5050431224E+00  7.2291230381E+00  5.0972602023E-02  4.9613248550E-02  3.7703533915E-01
  5.6400000000E+03  2.5077701736E+00  7.2263128576E+00  5.1111865436E-02  4.9746114673E-02  3.7726391244E-01
  5.6450000000E+03  2.5104977731E+00  7.2235062583E+00  5.1251385361E-02  4.9879212501E-02  3.7749230895E-01
  5.6500000000E+03  2.5132261898E+00  7.2207032324E+00  5.1391162042E-02  5.0012542311E-02  3.7772052920E-01
  5.6550000000E+03  2.5159570238E+00  7.2179037722E+00  5.1531195724E-02  5.0146104908E-02  3.7794857373E-01
  5.6600000000E+03  2.5186884078E+00  7.2151078700E+00  5.1671486651E-02  5.0279899723E-02  3.7817644310E-01
  5.6650000000E+03  2.5214203412E+00  7.2123155182E+00  5.1812035067E-02  5.0413926923E-02  3.7840413782E-01
  5.6700000000E+03  2.5241528238E+00  7.2095267091E+00  5.1952841217E-02  5.0548186678E-02  3.7863165843E-01
  5.6750000000E+03  2.5268858552E+00  7.2067414351E+00  5.2093905346E-02  5.0682679154E-02  3.7885900548E-01
  5.6800000000E+03  2.5296194349E+00  7.2039596887E+00  5.2235227699E-02  5.0817404519E-02  3.7908617947E-01
  5.6850000000E+03  2.5323535626E+00  7.2012195262E+00  5.2376808519E-02  5.0952364846E-02  3.7931318096E-01
  5.6900000000E+03  2.5350882380E+00  7.1984970815E+00  5.2518648052E-02  5.1087559136E-02  3.7954001045E-01
  5.6950000000E+03  2.5378234607E+00  7.1957780560E+00  5.2660746542E-02  5.1222986844E-02  3.7976666848E-01
  5.7000000000E+03  2.5405592303E+00  7.1930624422E+00  5.2803104233E-02  5.1358648138E-02  3.7999315557E-01
  5.7050000000E+03  2.5432954433E+00  7.1903502331E+00  5.2945721371E-02  5.1494543143E-02  3.8021947224E-01
  5.7100000000E+03  2.5460321520E+00  7.1876414213E+00  5.3088598200E-02  5.1630672045E-02  3.8044561901E-01
  5.7150000000E+03  2.5487694063E+00  7.1849359996E+00  5.3231734965E-02  5.1767035034E-02  3.8067159640E-01
  5.7200000000E+03  2.5515072058E+00  7.1822339608E+00  5.3375131910E-02  5.1903632274E-02  3.8089740493E-01
  5.7250000000E+03  2.5542455502E+00  7.1795352977E+00  5.3518789280E-02  5.2040463933E-02  3.8112304510E-01
  5.7300000000E+03  2.5569844391E+00  7.1768400031E+00  5.3662707321E-02  5.2177530177E-02  3.8134851745E-01
  5.7350000000E+03  2.5597238721E+00  7.1741480700E+00  5.3806886275E-02  5.2314831171E-02  3.8157382246E-01
  5.7400000000E+03  2.5624638489E+00  7.1714594911E+00  5.3951326389E-02  5.2452367082E-02  3.8179896067E-01
  5.7450000000E+03  2.5652043690E+00  7.1687742595E+00  5.4096027908E-02  5.2590138075E-02  3.8202393257E-01
  5.7500000000E+03  2.5679454322E+00  7.1660923680E+00  5.4240991075E-02  5.2728144316E-02  3.8224873867E-01
  5.7550000000E+03  2.5706870677E+00  7.1634138096E+00  5.4386216136E-02  5.2866385982E-02  3.8247337948E-01
  5.7600000000E+03  2.5734294629E+00  7.1607385772E+00  5.4531703336E-02  5.3004863319E-02  3.8269785551E-01
  5.7650000000E+03  2.5761724004E+00  7.1580666638E+00  5.4677452919E-02  5.3143576400E-02  3.8292216724E-01
  5.7700000000E+03  2.5789158797E+00  7.1553980625E+00  5.4823465130E-02  5.3282525390E-02  3.8314631519E-01
  5.7750000000E+03  2.5816599006E+00  7.1527545444E+00  5.4969740214E-02  5.3421711668E-02  3.8337029986E-01
  5.7800000000E+03  2.5844044626E+00  7.1501425823E+00  5.5116278417E-02  5.3561135785E-02  3.8359412173E-01
  5.7850000000E+03  2.5871495654E+00  7.1475338313E+00  5.5263079982E-02  5.3700796334E-02  3.8381778131E-01
  5.7900000000E+03  2.5898952087E+00  7.1449282847E+00  5.5410145156E-02  5.3840693479E-02  3.8404127910E-01
  5.7950000000E+03  2.5926413920E+00  7.1423259357E+00  5.5557474182E-02  5.3980827385E-02  3.8426461558E-01
  5.8000000000E+03  2.5953881150E+00  7.1397267777E+00  5.5705067305E-02  5.4121198215E-02  3.8448779124E-01
  5.8050000000E+03  2.5981353774E+00  7.1371308040E+00  5.5852924772E-02  5.4261806133E-02  3.8471080659E-01
  5.8100000000E+03  2.6008831657E+00  7.1345380080E+00  5.6001046826E-02  5.4402651298E-02  3.8493366209E-01
  5.8150000000E+03  2.6036314779E+00  7.1319483830E+00  5.6149433713E-02  5.4543733872E-02  3.8515635825E-01
  5.8200000000E+03  2.6063803283E+00  7.1293619225E+00  5.6298085678E-02  5.4685054026E-02  3.8537889555E-01
  5.8250000000E+03  2.6091297167E+00  7.1267786199E+00  5.6447002965E-02  5.4826611922E-02  3.8560127447E-01
  5.8300000000E+03  2.6118796425E+00  7.1241984687E+00  5.6596185820E-02  5.4968407725E-02  3.8582349550E-01
  5.8350000000E+03  2.6146301056E+00  7.1216214622E+00  5.6745634488E-02  5.5110441595E-02  3.8604555911E-01
  5.8400000000E+03  2.6173811054E+00  7.1190475940E+00  5.6895349214E-02  5.5252713698E-02  3.8626746579E-01
  5.8450000000E+03  2.6201326418E+00  7.1164768575E+00  5.7045330243E-02  5.5395224194E-02  3.8648921601E-01
  5.8500000000E+03  2.6228847142E+00  7.1139092463E+00  5.7195577820E-02  5.5537973247E-02  3.8671081024E-01
  5.8550000000E+03  2.6256373224E+00  7.1113447539E+00  5.7346092190E-02  5.5680961019E-02  3.8693224890E-01
  5.8600000000E+03  2.6283904660E+00  7.1087833739E+00  5.7496873599E-02  5.5824187672E-02  3.8715353246E-01
  5.8650000000E+03  2.6311440482E+00  7.1062250997E+00  5.7647922291E-02  5.5967653325E-02  3.8737466142E-01
  5.8700000000E+03  2.6338981282E+00  7.1037105334E+00  5.7799238512E-02  5.6111360699E-02  3.8759563629E-01
  5.8750000000E+03  2.6366527423E+00  7.1012062800E+00  5.7950822506E-02  5.6255307922E-02  3.8781645758E-01
  5.8800000000E+03  2.6394078903E+00  7.0987050387E+00  5.8102674520E-02  5.6399494704E-02  3.8803712577E-01
  5.8850000000E+03  2.6421635717E+00  7.0962068032E+00  5.8254794798E-02  5.6543921204E-02  3.8825764136E-01
  5.8900000000E+03  2.6449197863E+00  7.0937115675E+00  5.8407183585E-02  5.6688587586E-02  3.8847800485E-01
  5.8950000000E+03  2.6476765336E+00  7.0912193253E+00  5.8559841127E-02  5.6833494010E-02  3.8869821674E-01
  5.9000000000E+03  2.6504338134E+00  7.0887300706E+00  5.8712767670E-02  5.6978640638E-02  3.8891827751E-01
  5.9050000000E+03  2.6531916253E+00  7.0862437973E+00  5.8865963457E-02  5.7124027629E-02  3.8913818765E-01
  5.9100000000E+03  2.6559499689E+00  7.0837604992E+00  5.9019428735E-02  5.7269655145E-02  3.8935794766E-01
  5.9150000000E+03  2.6587088439E+00  7.0812801702E+00  5.9173163749E-02  5.7415523347E-02  3.8957755802E-01
  5.9200000000E+03  2.6614684640E+00  7.0788028044E+00  5.9327168744E-02  5.7561632494E-02  3.8979701922E-01
  5.9250000000E+03  2.6642286454E+00  7.0763283957E+00  5.9481443965E-02  5.7707982662E-02  3.9001633174E-01
  5.9300000000E+03  2.6669893574E+00  7.0738569381E+00  5.9635989659E-02  5.7854573997E-02  3.9023549607E-01
  5.9350000000E+03  2.6697505998E+00  7.0713884256E+00  5.9790806070E-02  5.8001406658E-02  3.9045451269E-01
  5.9400000000E+03  2.6725123721E+00  7.0689228521E+00  5.9945893443E-02  5.8148480805E-02  3.9067338207E-01
  5.9450000000E+03  2.6752746740E+00  7.0664602117E+00  6.0101252024E-02  5.8295796599E-02  3.9089210471E-01
  5.9500000000E+03  2.6780375051E+00  7.0640004985E+00  6.0256882059E-02  5.8443354197E-02  3.9111068106E-01
  5.9550000000E+03  2.6808008652E+00  7.0615437065E+00  6.0412783792E-02  5.8591153760E-02  3.9132911162E-01
  5.9600000000E+03  2.6835647539E+00  7.0590898298E+00  6.0568957470E-02  5.8739195446E-02  3.9154739685E-01
  5.9650000000E+03  2.6863291708E+00  7.0566828979E+00  6.0725403338E-02  5.8887482481E-02  3.9176553723E-01
  5.9700000000E+03  2.6890941157E+00  7.0542805564E+00  6.0882121641E-02  5.9036012110E-02  3.9198353323E-01
  5.9750000000E+03  2.6918591389E+00  7.0518810428E+00  6.1039112624E-02  5.9184784153E-02  3.9220138532E-01
  5.9800000000E+03  2.6946246550E+00  7.0494843515E+00  6.1196376534E-02  5.9333798968E-02  3.9241909397E-01
  5.9850000000E+03  2.6973906974E+00  7.0470904768E+00  6.1353913616E-02  5.9483056730E-02  3.9263665965E-01
  5.9900000000E+03  2.7001572657E+00  7.0446994131E+00  6.1511724115E-02  5.9632557597E-02  3.9285408282E-01
  5.9950000000E+03  2.7029243597E+00  7.0423111547E+00  6.1669808276E-02  5.9782301726E-02  3.9307136395E-01
  6.0000000000E+03  2.7056919789E+00  7.0399256960E+00  6.1828166346E-02  5.9932289276E-02  3.9328850350E-01
  6.0050000000E+03  2.7084601231E+00  7.0375430313E+00  6.1987806223E-02  6.0083467096E-02  3.9350550193E-01
  6.0100000000E+03  2.7112287918E+00  7.0351631552E+00  6.2147724843E-02  6.0234892508E-02  3.9372235972E-01
  6.0150000000E+03  2.7139979848E+00  7.0327860619E+00  6.2307922460E-02  6.0386565675E-02  3.9393907730E-01
  6.0200000000E+03  2.7167677018E+00  7.0304117460E+00  6.2468399328E-02  6.0538486761E-02  3.9415565515E-01
  6.0250000000E+03  2.7195379423E+00  7.0280402019E+00  6.2629155701E-02  6.0690655928E-02  3.9437209372E-01
  6.0300000000E+03  2.7223160709E+00  7.0256714241E+00  6.2790191833E-02  6.0843077020E-02  3.9458839346E-01
  6.0350000000E+03  2.7250957363E+00  7.0233054069E+00  6.2951507979E-02  6.0995747048E-02  3.9480455484E-01
  6.0400000000E+03  2.7278759344E+00  7.0209421451E+00  6.3113104393E-02  6.1148665677E-02  3.9502057830E-01
  6.0450000000E+03  2.7306566648E+00  7.0185816330E+00  6.3274981328E-02  6.1301833068E-02  3.9523646429E-01
  6.0500000000E+03  2.7334379272E+00  7.0162238651E+00  6.3437139039E-02  6.1455249384E-02  3.9545221327E-01
  6.0550000000E+03  2.7362197214E+00  7.0138688361E+00  6.3599577780E-02  6.1608914787E-02  3.9566782569E-01
  6.0600000000E+03  2.7390020468E+00  7.0115502947E+00  6.3762297805E-02  6.1762832058E-02  3.9588330198E-01
  6.0650000000E+03  2.7417849033E+00  7.0092444222E+00  6.3925299369E-02  6.1916999545E-02  3.9609864261E-01
  6.0700000000E+03  2.7445682905E+00  7.0069412073E+00  6.4088582726E-02  6.2071416639E-02  3.9631384801E-01
  6.0750000000E+03  2.7473522080E+00  7.0046406448E+00  6.4252148129E-02  6.2226083500E-02  3.9652891864E-01
  6.0800000000E+03  2.7501366554E+00  7.0023427293E+00  6.4415995834E-02  6.2381000291E-02  3.9674385492E-01
  6.0850000000E+03  2.7529600645E+00  7.0000474557E+00  6.4580126095E-02  6.2536187004E-02  3.9695865731E-01
  6.0900000000E+03  2.7557982729E+00  6.9977548187E+00  6.4744539166E-02  6.2691631470E-02  3.9717332625E-01
  6.0950000000E+03  2.7586370746E+00  6.9954648133E+00  6.4909235300E-02  6.2847326542E-02  3.9738786217E-01
  6.1000000000E+03  2.7614764692E+00  6.9931774341E+00  6.5074214754E-02  6.3003272381E-02  3.9760226551E-01
  6.1050000000E+03  2.7643164563E+00  6.9908926761E+00  6.5239477781E-02  6.3159469148E-02  3.9781653671E-01
  6.1100000000E+03  2.7671570355E+00  6.9886105341E+00  6.5405024635E-02  6.3315917006E-02  3.9803067621E-01
  6.1150000000E+03  2.7699982065E+00  6.9863310029E+00  6.5570855571E-02  6.3472616114E-02  3.9824468444E-01
  6.1200000000E+03  2.7728399689E+00  6.9840540775E+00  6.5736970843E-02  6.3629566634E-02  3.9845856184E-01
  6.1250000000E+03  2.7756823224E+00  6.9817797527E+00  6.5903370706E-02  6.3786768726E-02  3.9867230883E-01
  6.1300000000E+03  2.7785252666E+00  6.9795080235E+00  6.6070055415E-02  6.3944222551E-02  3.9888592585E-01
  6.1350000000E+03  2.7813688011E+00  6.9772388848E+00  6.6237025223E-02  6.4101928269E-02  3.9909941333E-01
  6.1400000000E+03  2.7842131834E+00  6.9749723314E+00  6.6404280385E-02  6.4259886177E-02  3.9931277169E-01
  6.1450000000E+03  2.7870584398E+00  6.9727083585E+00  6.6571821157E-02  6.4418096452E-02  3.9952600138E-01
  6.1500000000E+03  2.7899042860E+00  6.9704469608E+00  6.6739647792E-02  6.4576559101E-02  3.9973910280E-01
  6.1550000000E+03  2.7927507219E+00  6.9681995129E+00  6.6907760545E-02  6.4735275267E-02  3.9995207639E-01
  6.1600000000E+03  2.7955977469E+00  6.9659849955E+00  6.7076159670E-02  6.4894246774E-02  4.0016492257E-01
  6.1650000000E+03  2.7984453608E+00  6.9637729778E+00  6.7244845423E-02  6.5053471169E-02  4.0037764177E-01
  6.1700000000E+03  2.8012935633E+00  6.9615634550E+00  6.7413818058E-02  6.5212948611E-02  4.0059023460E-01
  6.1750000000E+03  2.8041423538E+00  6.9593564221E+00  6.7583077829E-02  6.5372679260E-02  4.0080270159E-01
  6.1800000000E+03  2.8069917322E+00  6.9571518745E+00  6.7752624991E-02  6.5532663275E-02  4.0101504316E-01
  6.1850000000E+03  2.8098416980E+00  6.9549498072E+00  6.7922459799E-02  6.5692900814E-02  4.0122725974E-01
  6.1900000000E+03  2.8126922509E+00  6.9527502156E+00  6.8092582508E-02  6.5853392037E-02  4.0143935175E-01
  6.1950000000E+03  2.8155432654E+00  6.9505530948E+00  6.8262993373E-02  6.6014137031E-02  4.0165131960E-01
  6.2000000000E+03  2.8183939301E+00  6.9483584400E+00  6.8433692647E-02  6.6175135509E-02  4.0186316372E-01
  6.2050000000E+03  2.8212451796E+00  6.9461662465E+00  6.8604680586E-02  6.6336388141E-02  4.0207488453E-01
  6.2100000000E+03  2.8240970135E+00  6.9439765096E+00  6.8775957445E-02  6.6497895083E-02  4.0228648243E-01
  6.2150000000E+03  2.8269494313E+00  6.9417892245E+00  6.8947523479E-02  6.6659656495E-02  4.0249795785E-01
  6.2200000000E+03  2.8298024329E+00  6.9396043866E+00  6.9119378942E-02  6.6821672534E-02  4.0270931120E-01
  6.2250000000E+03  2.8326560178E+00  6.9374219910E+00  6.9291524089E-02  6.6983943356E-02  4.0292054289E-01
  6.2300000000E+03  2.8355101857E+00  6.9352420332E+00  6.9463959175E-02  6.7146469119E-02  4.0313165334E-01
  6.2350000000E+03  2.8383649362E+00  6.9330645084E+00  6.9636684455E-02  6.7309249980E-02  4.0334264295E-01
  6.2400000000E+03  2.8412202690E+00  6.9308894120E+00  6.9809700184E-02  6.7472286096E-02  4.0355351214E-01
  6.2450000000E+03  2.8440761838E+00  6.9287167394E+00  6.9983006616E-02  6.7635577623E-02  4.0376426132E-01
  6.2500000000E+03  2.8469326801E+00  6.9265464858E+00  7.0156604007E-02  6.7799124718E-02  4.0397489088E-01
  6.2550000000E+03  2.8497902427E+00  6.9243969559E+00  7.0330492612E-02  6.7962929576E-02  4.0418540125E-01
  6.2600000000E+03  2.8526486436E+00  6.9222713482E+00  7.0504672686E-02  6.8126992565E-02  4.0439579283E-01
  6.2650000000E+03  2.8555076259E+00  6.9201480893E+00  7.0679144483E-02  6.8291311629E-02  4.0460606602E-01
  6.2700000000E+03  2.8583671893E+00  6.9180271748E+00  7.0853908260E-02  6.8455886925E-02  4.0481622122E-01
  6.2750000000E+03  2.8612273335E+00  6.9159086002E+00  7.1028964269E-02  6.8620718607E-02  4.0502625884E-01
  6.2800000000E+03  2.8640880580E+00  6.9137923610E+00  7.1204312768E-02  6.8785806832E-02  4.0523617928E-01
  6.2850000000E+03  2.8669493627E+00  6.9116784529E+00  7.1379954010E-02  6.8951151754E-02  4.0544598294E-01
  6.2900000000E+03  2.8698112471E+00  6.9095668713E+00  7.1555888252E-02  6.9116753529E-02  4.0565567022E-01
  6.2950000000E+03  2.8726737108E+00  6.9074576120E+00  7.1732115747E-02  6.9282612312E-02  4.0586524151E-01
  6.3000000000E+03  2.8755367536E+00  6.9053506704E+00  7.1908636752E-02  6.9448728257E-02  4.0607469723E-01
  6.3050000000E+03  2.8784003751E+00  6.9032460423E+00  7.2085451521E-02  6.9615101520E-02  4.0628403776E-01
  6.3100000000E+03  2.8812644994E+00  6.9011437232E+00  7.2262560310E-02  6.9781732210E-02  4.0649326349E-01
  6.3150000000E+03  2.8841283994E+00  6.8990437087E+00  7.2439963373E-02  6.9948620053E-02  4.0670237483E-01
  6.3200000000E+03  2.8869928759E+00  6.8969459947E+00  7.2617660966E-02  7.0115765673E-02  4.0691137217E-01
  6.3250000000E+03  2.8898579288E+00  6.8948505766E+00  7.2795653345E-02  7.0283169223E-02  4.0712025590E-01
  6.3300000000E+03  2.8927235576E+00  6.8927574502E+00  7.2973940764E-02  7.0450830857E-02  4.0732902641E-01
  6.3350000000E+03  2.8955897620E+00  6.8906666112E+00  7.3152523478E-02  7.0618750729E-02  4.0753768409E-01
  6.3400000000E+03  2.8984565416E+00  6.8885780552E+00  7.3331401744E-02  7.0786928991E-02  4.0774622934E-01
  6.3450000000E+03  2.9013238962E+00  6.8864917780E+00  7.3510575816E-02  7.0955365797E-02  4.0795466254E-01
  6.3500000000E+03  2.9041918254E+00  6.8844077752E+00  7.3690045949E-02  7.1124061299E-02  4.0816298408E-01
