#[MATERIAL DEFINITION FOR MC-GPU: interaction mean free path and sampling data from PENELOPE 2018]
#[MATERIAL NAME]
# bladder                                                       
#[NOMINAL DENSITY (g/cm^3)]
#   1.04000000
#[NUMBER OF DATA VALUES]
#  23002
#[MEAN FREE PATHS (cm) (ie, average distance between interactions)]
#[Energy (eV)     | Rayleigh        | Compton         | Photoelectric   | TOTAL (+pair prod) (cm) | Rayleigh: max cumul prob F^2]
  5.0000000000E+03  1.7104512022E+00  8.2249034687E+00  2.3052640686E-02  2.2683348831E-02  3.4788876939E-01
  5.0050000000E+03  1.7124747870E+00  8.2196781092E+00  2.3122044602E-02  2.2750861261E-02  3.4815106416E-01
  5.0100000000E+03  1.7144987418E+00  8.2144612819E+00  2.3191587605E-02  2.2818504856E-02  3.4841304949E-01
  5.0150000000E+03  1.7165243933E+00  8.2092529645E+00  2.3261269834E-02  2.2886279963E-02  3.4867472604E-01
  5.0200000000E+03  1.7185512093E+00  8.2040531346E+00  2.3331091426E-02  2.2954186603E-02  3.4893609443E-01
  5.0250000000E+03  1.7205783973E+00  8.1988617699E+00  2.3401052522E-02  2.3022224747E-02  3.4919715530E-01
  5.0300000000E+03  1.7226059568E+00  8.1936788484E+00  2.3471153259E-02  2.3090394510E-02  3.4945790929E-01
  5.0350000000E+03  1.7246338876E+00  8.1885043477E+00  2.3541393776E-02  2.3158696002E-02  3.4971835703E-01
  5.0400000000E+03  1.7266621894E+00  8.1833382460E+00  2.3611774213E-02  2.3227129336E-02  3.4997849915E-01
  5.0450000000E+03  1.7286908619E+00  8.1781805214E+00  2.3682294707E-02  2.3295694625E-02  3.5023833627E-01
  5.0500000000E+03  1.7307199047E+00  8.1730311518E+00  2.3752955397E-02  2.3364391980E-02  3.5049786902E-01
  5.0550000000E+03  1.7327493176E+00  8.1678901156E+00  2.3823756422E-02  2.3433221514E-02  3.5075709803E-01
  5.0600000000E+03  1.7347794012E+00  8.1627573910E+00  2.3894697920E-02  2.3502183393E-02  3.5101602392E-01
  5.0650000000E+03  1.7368104136E+00  8.1576329564E+00  2.3965780031E-02  2.3571277779E-02  3.5127464730E-01
  5.0700000000E+03  1.7388417963E+00  8.1525167902E+00  2.4037002893E-02  2.3640504681E-02  3.5153296880E-01
  5.0750000000E+03  1.7408735491E+00  8.1474088711E+00  2.4108366644E-02  2.3709864210E-02  3.5179098903E-01
  5.0800000000E+03  1.7429056717E+00  8.1423091775E+00  2.4179871423E-02  2.3779356479E-02  3.5204870860E-01
  5.0850000000E+03  1.7449381637E+00  8.1373056054E+00  2.4251517369E-02  2.3848982355E-02  3.5230612813E-01
  5.0900000000E+03  1.7469710249E+00  8.1323185455E+00  2.4323304621E-02  2.3918741276E-02  3.5256324823E-01
  5.0950000000E+03  1.7490042550E+00  8.1273394340E+00  2.4395233317E-02  2.3988633281E-02  3.5282006950E-01
  5.1000000000E+03  1.7510378536E+00  8.1223682504E+00  2.4467303595E-02  2.4058658483E-02  3.5307659255E-01
  5.1050000000E+03  1.7530718206E+00  8.1174049743E+00  2.4539515595E-02  2.4128816993E-02  3.5333281799E-01
  5.1100000000E+03  1.7551065152E+00  8.1124495855E+00  2.4611869455E-02  2.4199108989E-02  3.5358874642E-01
  5.1150000000E+03  1.7571415817E+00  8.1075020636E+00  2.4684365313E-02  2.4269534518E-02  3.5384437844E-01
  5.1200000000E+03  1.7591770161E+00  8.1025623886E+00  2.4757003309E-02  2.4340093689E-02  3.5409971464E-01
  5.1250000000E+03  1.7612128180E+00  8.0976305404E+00  2.4829783580E-02  2.4410786613E-02  3.5435475563E-01
  5.1300000000E+03  1.7632489872E+00  8.0927064989E+00  2.4902706266E-02  2.4481613402E-02  3.5460950200E-01
  5.1350000000E+03  1.7652855235E+00  8.0877902441E+00  2.4975771506E-02  2.4552574167E-02  3.5486395434E-01
  5.1400000000E+03  1.7673224265E+00  8.0828817563E+00  2.5048979437E-02  2.4623669020E-02  3.5511811324E-01
  5.1450000000E+03  1.7693596959E+00  8.0779810156E+00  2.5122330198E-02  2.4694898070E-02  3.5537197930E-01
  5.1500000000E+03  1.7713973314E+00  8.0730880022E+00  2.5195823929E-02  2.4766261429E-02  3.5562555310E-01
  5.1550000000E+03  1.7734359726E+00  8.0682026965E+00  2.5269460767E-02  2.4837759333E-02  3.5587883523E-01
  5.1600000000E+03  1.7754755212E+00  8.0633250789E+00  2.5343240851E-02  2.4909391875E-02  3.5613182630E-01
  5.1650000000E+03  1.7775154366E+00  8.0585068326E+00  2.5417164320E-02  2.4981159557E-02  3.5638452718E-01
  5.1700000000E+03  1.7795557186E+00  8.0537377220E+00  2.5491231313E-02  2.5053062402E-02  3.5663693859E-01
  5.1750000000E+03  1.7815963669E+00  8.0489760399E+00  2.5565441968E-02  2.5125100121E-02  3.5688906121E-01
  5.1800000000E+03  1.7836373811E+00  8.0442217673E+00  2.5639796423E-02  2.5197272826E-02  3.5714089573E-01
  5.1850000000E+03  1.7856787610E+00  8.0394748858E+00  2.5714294818E-02  2.5269580627E-02  3.5739244285E-01
  5.1900000000E+03  1.7877205063E+00  8.0347353767E+00  2.5788937291E-02  2.5342023635E-02  3.5764370324E-01
  5.1950000000E+03  1.7897626167E+00  8.0300032214E+00  2.5863723980E-02  2.5414601960E-02  3.5789467760E-01
  5.2000000000E+03  1.7918050957E+00  8.0252784015E+00  2.5938655024E-02  2.5487315713E-02  3.5814536658E-01
  5.2050000000E+03  1.7938484186E+00  8.0205608986E+00  2.6013730562E-02  2.5560165101E-02  3.5839577088E-01
  5.2100000000E+03  1.7958921063E+00  8.0158506943E+00  2.6088950733E-02  2.5633150137E-02  3.5864589117E-01
  5.2150000000E+03  1.7979361586E+00  8.0111477703E+00  2.6164315674E-02  2.5706270932E-02  3.5889572812E-01
  5.2200000000E+03  1.7999805753E+00  8.0064521085E+00  2.6239825524E-02  2.5779527595E-02  3.5914528239E-01
  5.2250000000E+03  1.8020253559E+00  8.0017636906E+00  2.6315480423E-02  2.5852920238E-02  3.5939455466E-01
  5.2300000000E+03  1.8040705004E+00  7.9970824987E+00  2.6391280508E-02  2.5926448969E-02  3.5964354558E-01
  5.2350000000E+03  1.8061160083E+00  7.9924085146E+00  2.6467225918E-02  2.6000113898E-02  3.5989225582E-01
  5.2400000000E+03  1.8081618793E+00  7.9877417204E+00  2.6543316793E-02  2.6073915136E-02  3.6014068604E-01
  5.2450000000E+03  1.8102081133E+00  7.9830820981E+00  2.6619553269E-02  2.6147852792E-02  3.6038883690E-01
  5.2500000000E+03  1.8122554881E+00  7.9785138544E+00  2.6695935487E-02  2.6221928048E-02  3.6063670904E-01
  5.2550000000E+03  1.8143044650E+00  7.9739586208E+00  2.6772463584E-02  2.6296140278E-02  3.6088430312E-01
  5.2600000000E+03  1.8163538066E+00  7.9694103165E+00  2.6849137699E-02  2.6370489271E-02  3.6113161980E-01
  5.2650000000E+03  1.8184035125E+00  7.9648689242E+00  2.6925957971E-02  2.6444975134E-02  3.6137865971E-01
  5.2700000000E+03  1.8204535826E+00  7.9603344269E+00  2.7002924538E-02  2.6519597978E-02  3.6162542350E-01
  5.2750000000E+03  1.8225040166E+00  7.9558068077E+00  2.7080037539E-02  2.6594357911E-02  3.6187191182E-01
  5.2800000000E+03  1.8245548141E+00  7.9512860495E+00  2.7157297112E-02  2.6669255044E-02  3.6211812530E-01
  5.2850000000E+03  1.8266059749E+00  7.9467721355E+00  2.7234703396E-02  2.6744289484E-02  3.6236406459E-01
  5.2900000000E+03  1.8286574987E+00  7.9422650489E+00  2.7312256529E-02  2.6819461343E-02  3.6260973031E-01
  5.2950000000E+03  1.8307093852E+00  7.9377647729E+00  2.7389956651E-02  2.6894770728E-02  3.6285512311E-01
  5.3000000000E+03  1.8327614679E+00  7.9332712908E+00  2.7467803899E-02  2.6970217712E-02  3.6310024360E-01
  5.3050000000E+03  1.8348138322E+00  7.9287845859E+00  2.7545798412E-02  2.7045802424E-02  3.6334509243E-01
  5.3100000000E+03  1.8368665579E+00  7.9243046417E+00  2.7623940329E-02  2.7121524988E-02  3.6358967021E-01
  5.3150000000E+03  1.8389196450E+00  7.9198314417E+00  2.7702229788E-02  2.7197385515E-02  3.6383397757E-01
  5.3200000000E+03  1.8409730932E+00  7.9153649692E+00  2.7780666928E-02  2.7273384112E-02  3.6407801514E-01
  5.3250000000E+03  1.8430269020E+00  7.9109052080E+00  2.7859251888E-02  2.7349520888E-02  3.6432178353E-01
  5.3300000000E+03  1.8450810713E+00  7.9064560200E+00  2.7937984805E-02  2.7425795999E-02  3.6456528335E-01
  5.3350000000E+03  1.8471356009E+00  7.9020969839E+00  2.8016865818E-02  2.7502210519E-02  3.6480851524E-01
  5.3400000000E+03  1.8491904903E+00  7.8977444311E+00  2.8095895067E-02  2.7578763555E-02  3.6505147979E-01
  5.3450000000E+03  1.8512457394E+00  7.8933983459E+00  2.8175072689E-02  2.7655455217E-02  3.6529417762E-01
  5.3500000000E+03  1.8533008984E+00  7.8890587126E+00  2.8254398823E-02  2.7732285512E-02  3.6553660934E-01
  5.3550000000E+03  1.8553563499E+00  7.8847255156E+00  2.8333873607E-02  2.7809254633E-02  3.6577877555E-01
  5.3600000000E+03  1.8574121595E+00  7.8803987395E+00  2.8413497181E-02  2.7886362704E-02  3.6602067686E-01
  5.3650000000E+03  1.8594683271E+00  7.8760783686E+00  2.8493269682E-02  2.7963609833E-02  3.6626231387E-01
  5.3700000000E+03  1.8615248523E+00  7.8717643877E+00  2.8573191249E-02  2.8040996127E-02  3.6650368718E-01
  5.3750000000E+03  1.8635817348E+00  7.8674567812E+00  2.8653262021E-02  2.8118521695E-02  3.6674479739E-01
  5.3800000000E+03  1.8656389744E+00  7.8631555338E+00  2.8733482136E-02  2.8196186646E-02  3.6698564510E-01
  5.3850000000E+03  1.8676965708E+00  7.8588606303E+00  2.8813851732E-02  2.8273991086E-02  3.6722623089E-01
  5.3900000000E+03  1.8697545238E+00  7.8545720555E+00  2.8894370949E-02  2.8351935123E-02  3.6746655536E-01
  5.3950000000E+03  1.8718128330E+00  7.8502897941E+00  2.8975039925E-02  2.8430018867E-02  3.6770661911E-01
  5.4000000000E+03  1.8738724559E+00  7.8460138310E+00  2.9055858797E-02  2.8508242644E-02  3.6794642271E-01
  5.4050000000E+03  1.8759324573E+00  7.8417441511E+00  2.9136827706E-02  2.8586606350E-02  3.6818596676E-01
  5.4100000000E+03  1.8779928155E+00  7.8374807394E+00  2.9217946789E-02  2.8665110085E-02  3.6842525183E-01
  5.4150000000E+03  1.8800535301E+00  7.8332235810E+00  2.9299216184E-02  2.8743753958E-02  3.6866427851E-01
  5.4200000000E+03  1.8821146008E+00  7.8290474043E+00  2.9380636030E-02  2.8822539089E-02  3.6890304738E-01
  5.4250000000E+03  1.8841760275E+00  7.8248871079E+00  2.9462206467E-02  2.8901464717E-02  3.6914155901E-01
  5.4300000000E+03  1.8862378098E+00  7.8207328518E+00  2.9543927631E-02  2.8980530817E-02  3.6937981399E-01
  5.4350000000E+03  1.8882999475E+00  7.8165846217E+00  2.9625799663E-02  2.9059737498E-02  3.6961781287E-01
  5.4400000000E+03  1.8903624403E+00  7.8124424033E+00  2.9707822699E-02  2.9139084865E-02  3.6985555625E-01
  5.4450000000E+03  1.8924252880E+00  7.8083061824E+00  2.9789996879E-02  2.9218573026E-02  3.7009304468E-01
  5.4500000000E+03  1.8945674947E+00  7.8041759448E+00  2.9872322341E-02  2.9298220983E-02  3.7033027873E-01
  5.4550000000E+03  1.8967106359E+00  7.8000516764E+00  2.9954799224E-02  2.9378010209E-02  3.7056725897E-01
  5.4600000000E+03  1.8988542345E+00  7.7959333631E+00  3.0037427667E-02  2.9457940697E-02  3.7080398597E-01
  5.4650000000E+03  1.9009982904E+00  7.7918209908E+00  3.0120207806E-02  2.9538012557E-02  3.7104046027E-01
  5.4700000000E+03  1.9031428031E+00  7.7877145456E+00  3.0203139782E-02  2.9618225894E-02  3.7127668246E-01
  5.4750000000E+03  1.9052877724E+00  7.7836140135E+00  3.0286223733E-02  2.9698580817E-02  3.7151265307E-01
  5.4800000000E+03  1.9074331979E+00  7.7795193806E+00  3.0369459796E-02  2.9779077433E-02  3.7174837267E-01
  5.4850000000E+03  1.9095790794E+00  7.7754306330E+00  3.0452848111E-02  2.9859715848E-02  3.7198384182E-01
  5.4900000000E+03  1.9117254164E+00  7.7713477570E+00  3.0536388817E-02  2.9940496170E-02  3.7221906106E-01
  5.4950000000E+03  1.9138722087E+00  7.7672707387E+00  3.0620082050E-02  3.0021418506E-02  3.7245403094E-01
  5.5000000000E+03  1.9160233084E+00  7.7631995645E+00  3.0703927951E-02  3.0102483915E-02  3.7268875202E-01
  5.5050000000E+03  1.9181752123E+00  7.7591707859E+00  3.0788367263E-02  3.0184115678E-02  3.7292322483E-01
  5.5100000000E+03  1.9203275761E+00  7.7551929044E+00  3.0872961557E-02  3.0265892372E-02  3.7315744993E-01
  5.5150000000E+03  1.9224803995E+00  7.7512206676E+00  3.0957710974E-02  3.0347813425E-02  3.7339142787E-01
  5.5200000000E+03  1.9246336822E+00  7.7472540622E+00  3.1042615657E-02  3.0429878948E-02  3.7362515937E-01
  5.5250000000E+03  1.9267874238E+00  7.7432930753E+00  3.1127675749E-02  3.0512089052E-02  3.7385864512E-01
  5.5300000000E+03  1.9289416241E+00  7.7393376938E+00  3.1212891393E-02  3.0594443846E-02  3.7409188577E-01
  5.5350000000E+03  1.9310962827E+00  7.7353879047E+00  3.1298262731E-02  3.0676943441E-02  3.7432488197E-01
  5.5400000000E+03  1.9332513993E+00  7.7314436950E+00  3.1383789906E-02  3.0759587946E-02  3.7455763436E-01
  5.5450000000E+03  1.9354069737E+00  7.7275050519E+00  3.1469473060E-02  3.0842377472E-02  3.7479014358E-01
  5.5500000000E+03  1.9375629288E+00  7.7235719625E+00  3.1555312337E-02  3.0925312109E-02  3.7502241027E-01
  5.5550000000E+03  1.9397193152E+00  7.7196444140E+00  3.1641307878E-02  3.1008391979E-02  3.7525443507E-01
  5.5600000000E+03  1.9418761582E+00  7.7157223935E+00  3.1727459827E-02  3.1091617199E-02  3.7548621862E-01
  5.5650000000E+03  1.9440334575E+00  7.7118058883E+00  3.1813768326E-02  3.1174987878E-02  3.7571776153E-01
  5.5700000000E+03  1.9461912127E+00  7.7078948858E+00  3.1900233517E-02  3.1258504127E-02  3.7594906446E-01
  5.5750000000E+03  1.9483494237E+00  7.7039893733E+00  3.1986855544E-02  3.1342166053E-02  3.7618012801E-01
  5.5800000000E+03  1.9505080900E+00  7.7000893381E+00  3.2073634550E-02  3.1425973768E-02  3.7641095282E-01
  5.5850000000E+03  1.9526672114E+00  7.6961947677E+00  3.2160570675E-02  3.1509927379E-02  3.7664153950E-01
  5.5900000000E+03  1.9548267875E+00  7.6923056496E+00  3.2247664065E-02  3.1594026998E-02  3.7687188868E-01
  5.5950000000E+03  1.9569868180E+00  7.6884793117E+00  3.2334914860E-02  3.1678273705E-02  3.7710200097E-01
  5.6000000000E+03  1.9591473192E+00  7.6846794999E+00  3.2422323204E-02  3.1762667014E-02  3.7733187700E-01
  5.6050000000E+03  1.9613082921E+00  7.6808849548E+00  3.2509889239E-02  3.1847206676E-02  3.7756151736E-01
  5.6100000000E+03  1.9634697184E+00  7.6770956642E+00  3.2597613108E-02  3.1931892796E-02  3.7779092267E-01
  5.6150000000E+03  1.9656315980E+00  7.6733116163E+00  3.2685494953E-02  3.2016725483E-02  3.7802009355E-01
  5.6200000000E+03  1.9677939305E+00  7.6695327992E+00  3.2773534918E-02  3.2101704844E-02  3.7824903059E-01
  5.6250000000E+03  1.9699567156E+00  7.6657592009E+00  3.2861733145E-02  3.2186830990E-02  3.7847773439E-01
  5.6300000000E+03  1.9721199531E+00  7.6619908097E+00  3.2950089777E-02  3.2272104029E-02  3.7870620557E-01
  5.6350000000E+03  1.9742836425E+00  7.6582276138E+00  3.3038604955E-02  3.2357524070E-02  3.7893444471E-01
  5.6400000000E+03  1.9764477836E+00  7.6544696013E+00  3.3127278824E-02  3.2443091221E-02  3.7916245242E-01
  5.6450000000E+03  1.9786123761E+00  7.6507167606E+00  3.3216111525E-02  3.2528805591E-02  3.7939022928E-01
  5.6500000000E+03  1.9807775143E+00  7.6469690800E+00  3.3305103201E-02  3.2614667315E-02  3.7961777590E-01
  5.6550000000E+03  1.9829437599E+00  7.6432265478E+00  3.3394253995E-02  3.2700676653E-02  3.7984509286E-01
  5.6600000000E+03  1.9851104568E+00  7.6394891524E+00  3.3483564049E-02  3.2786833537E-02  3.8007218074E-01
  5.6650000000E+03  1.9872776050E+00  7.6357568823E+00  3.3573033507E-02  3.2873138074E-02  3.8029904014E-01
  5.6700000000E+03  1.9894452039E+00  7.6320297258E+00  3.3662662510E-02  3.2959590374E-02  3.8052567163E-01
  5.6750000000E+03  1.9916132534E+00  7.6283076715E+00  3.3752451202E-02  3.3046190545E-02  3.8075207580E-01
  5.6800000000E+03  1.9937817532E+00  7.6245907078E+00  3.3842399724E-02  3.3132938693E-02  3.8097825323E-01
  5.6850000000E+03  1.9959507029E+00  7.6209336690E+00  3.3932508221E-02  3.3219835971E-02  3.8120420449E-01
  5.6900000000E+03  1.9981201021E+00  7.6173021533E+00  3.4022776834E-02  3.3306881846E-02  3.8142993015E-01
  5.6950000000E+03  2.0002899508E+00  7.6136755555E+00  3.4113205706E-02  3.3394076039E-02  3.8165543080E-01
  5.7000000000E+03  2.0024602484E+00  7.6100538646E+00  3.4203794979E-02  3.3481418657E-02  3.8188070700E-01
  5.7050000000E+03  2.0046310044E+00  7.6064370698E+00  3.4294544797E-02  3.3568909811E-02  3.8210575931E-01
  5.7100000000E+03  2.0068022135E+00  7.6028251602E+00  3.4385455302E-02  3.3656549607E-02  3.8233058831E-01
  5.7150000000E+03  2.0089738707E+00  7.5992181248E+00  3.4476526636E-02  3.3744338151E-02  3.8255519456E-01
  5.7200000000E+03  2.0111459758E+00  7.5956159528E+00  3.4567758943E-02  3.3832275551E-02  3.8277957862E-01
  5.7250000000E+03  2.0133185285E+00  7.5920186335E+00  3.4659152365E-02  3.3920361915E-02  3.8300374105E-01
  5.7300000000E+03  2.0154915283E+00  7.5884261561E+00  3.4750707044E-02  3.4008597349E-02  3.8322768241E-01
  5.7350000000E+03  2.0176649751E+00  7.5848385098E+00  3.4842423123E-02  3.4096981961E-02  3.8345140326E-01
  5.7400000000E+03  2.0198388686E+00  7.5812556839E+00  3.4934300746E-02  3.4185515859E-02  3.8367490414E-01
  5.7450000000E+03  2.0220132084E+00  7.5776776678E+00  3.5026340053E-02  3.4274199149E-02  3.8389818561E-01
  5.7500000000E+03  2.0241879943E+00  7.5741044508E+00  3.5118541189E-02  3.4363031939E-02  3.8412124822E-01
  5.7550000000E+03  2.0263633272E+00  7.5705360224E+00  3.5210904296E-02  3.4452014364E-02  3.8434409252E-01
  5.7600000000E+03  2.0285398493E+00  7.5669723719E+00  3.5303429517E-02  3.4541146719E-02  3.8456671905E-01
  5.7650000000E+03  2.0307168176E+00  7.5634134888E+00  3.5396116993E-02  3.4630428896E-02  3.8478912836E-01
  5.7700000000E+03  2.0328942318E+00  7.5598593627E+00  3.5488966868E-02  3.4719861003E-02  3.8501132099E-01
  5.7750000000E+03  2.0350720918E+00  7.5563414642E+00  3.5581979285E-02  3.4809443813E-02  3.8523329748E-01
  5.7800000000E+03  2.0372503970E+00  7.5528691396E+00  3.5675154386E-02  3.4899177645E-02  3.8545505837E-01
  5.7850000000E+03  2.0394291474E+00  7.5494014110E+00  3.5768492313E-02  3.4989061743E-02  3.8567660419E-01
  5.7900000000E+03  2.0416083425E+00  7.5459382684E+00  3.5861993210E-02  3.5079096212E-02  3.8589793548E-01
  5.7950000000E+03  2.0437879820E+00  7.5424797016E+00  3.5955657219E-02  3.5169281159E-02  3.8611905277E-01
  5.8000000000E+03  2.0459680658E+00  7.5390257009E+00  3.6049484483E-02  3.5259616691E-02  3.8633995659E-01
  5.8050000000E+03  2.0481485934E+00  7.5355762560E+00  3.6143475144E-02  3.5350102913E-02  3.8656064747E-01
  5.8100000000E+03  2.0503300264E+00  7.5321313573E+00  3.6237629345E-02  3.5440740071E-02  3.8678112593E-01
  5.8150000000E+03  2.0525124202E+00  7.5286909947E+00  3.6331947229E-02  3.5531528288E-02  3.8700139250E-01
  5.8200000000E+03  2.0546952582E+00  7.5252551584E+00  3.6426428938E-02  3.5622467517E-02  3.8722144771E-01
  5.8250000000E+03  2.0568785401E+00  7.5218238386E+00  3.6521074615E-02  3.5713557864E-02  3.8744129208E-01
  5.8300000000E+03  2.0590622658E+00  7.5183970254E+00  3.6615884403E-02  3.5804799434E-02  3.8766092611E-01
  5.8350000000E+03  2.0612464348E+00  7.5149747091E+00  3.6710858443E-02  3.5896192334E-02  3.8788035034E-01
  5.8400000000E+03  2.0634310469E+00  7.5115568800E+00  3.6805996880E-02  3.5987736670E-02  3.8809956527E-01
  5.8450000000E+03  2.0656161018E+00  7.5081435282E+00  3.6901299855E-02  3.6079432547E-02  3.8831857143E-01
  5.8500000000E+03  2.0678015992E+00  7.5047346442E+00  3.6996767512E-02  3.6171280071E-02  3.8853736931E-01
  5.8550000000E+03  2.0699875389E+00  7.5013302183E+00  3.7092399992E-02  3.6263279347E-02  3.8875595934E-01
  5.8600000000E+03  2.0721739205E+00  7.4979302407E+00  3.7188197439E-02  3.6355430481E-02  3.8897434208E-01
  5.8650000000E+03  2.0743612249E+00  7.4945347021E+00  3.7284159995E-02  3.6447733728E-02  3.8919251810E-01
  5.8700000000E+03  2.0765491549E+00  7.4912024936E+00  3.7380287803E-02  3.6540190503E-02  3.8941048799E-01
  5.8750000000E+03  2.0787375269E+00  7.4878851652E+00  3.7476581006E-02  3.6632799720E-02  3.8962825231E-01
  5.8800000000E+03  2.0809263404E+00  7.4845721260E+00  3.7573039745E-02  3.6725561235E-02  3.8984581164E-01
  5.8850000000E+03  2.0831155953E+00  7.4812633668E+00  3.7669664164E-02  3.6818475154E-02  3.9006316654E-01
  5.8900000000E+03  2.0853052912E+00  7.4779588785E+00  3.7766454406E-02  3.6911541580E-02  3.9028031759E-01
  5.8950000000E+03  2.0874954279E+00  7.4746586519E+00  3.7863410613E-02  3.7004760620E-02  3.9049726535E-01
  5.9000000000E+03  2.0896860051E+00  7.4713626779E+00  3.7960532928E-02  3.7098132379E-02  3.9071401037E-01
  5.9050000000E+03  2.0918770225E+00  7.4680709474E+00  3.8057821492E-02  3.7191656960E-02  3.9093055323E-01
  5.9100000000E+03  2.0940684797E+00  7.4647834514E+00  3.8155276450E-02  3.7285334470E-02  3.9114689448E-01
  5.9150000000E+03  2.0962603766E+00  7.4615001809E+00  3.8252897944E-02  3.7379165013E-02  3.9136303467E-01
  5.9200000000E+03  2.0984542793E+00  7.4582211269E+00  3.8350686116E-02  3.7473149193E-02  3.9157897436E-01
  5.9250000000E+03  2.1006488448E+00  7.4549462804E+00  3.8448641109E-02  3.7567286690E-02  3.9179471411E-01
  5.9300000000E+03  2.1028438514E+00  7.4516756324E+00  3.8546763066E-02  3.7661577537E-02  3.9201025446E-01
  5.9350000000E+03  2.1050392986E+00  7.4484091741E+00  3.8645052128E-02  3.7756021840E-02  3.9222559596E-01
  5.9400000000E+03  2.1072351863E+00  7.4451468965E+00  3.8743508440E-02  3.7850619703E-02  3.9244073915E-01
  5.9450000000E+03  2.1094315142E+00  7.4418887908E+00  3.8842132144E-02  3.7945371229E-02  3.9265568459E-01
  5.9500000000E+03  2.1116282819E+00  7.4386348482E+00  3.8940923381E-02  3.8040276524E-02  3.9287043281E-01
  5.9550000000E+03  2.1138254892E+00  7.4353850598E+00  3.9039882296E-02  3.8135335692E-02  3.9308498436E-01
  5.9600000000E+03  2.1160231358E+00  7.4321394168E+00  3.9139009030E-02  3.8230548836E-02  3.9329933976E-01
  5.9650000000E+03  2.1182212215E+00  7.4289620139E+00  3.9238303726E-02  3.8325917767E-02  3.9351349957E-01
  5.9700000000E+03  2.1204197459E+00  7.4257911829E+00  3.9337766528E-02  3.8421440968E-02  3.9372746430E-01
  5.9750000000E+03  2.1226184474E+00  7.4226243582E+00  3.9437397576E-02  3.8517118388E-02  3.9394123450E-01
  5.9800000000E+03  2.1248175670E+00  7.4194615312E+00  3.9537197015E-02  3.8612950212E-02  3.9415481069E-01
  5.9850000000E+03  2.1270171242E+00  7.4163026937E+00  3.9637164987E-02  3.8708936549E-02  3.9436819341E-01
  5.9900000000E+03  2.1292171187E+00  7.4131478372E+00  3.9737301634E-02  3.8805077503E-02  3.9458138317E-01
  5.9950000000E+03  2.1314175502E+00  7.4099969534E+00  3.9837607099E-02  3.8901373178E-02  3.9479438051E-01
  6.0000000000E+03  2.1336184185E+00  7.4068500340E+00  3.9938081525E-02  3.8997823677E-02  3.9500718594E-01
  6.0050000000E+03  2.1358197231E+00  7.4037070707E+00  4.0039440304E-02  3.9095111013E-02  3.9521979999E-01
  6.0100000000E+03  2.1380214640E+00  7.4005680553E+00  4.0140971375E-02  3.9192556166E-02  3.9543222317E-01
  6.0150000000E+03  2.1402236407E+00  7.3974329796E+00  4.0242674886E-02  3.9290159245E-02  3.9564445601E-01
  6.0200000000E+03  2.1424262531E+00  7.3943018352E+00  4.0344550986E-02  3.9387920357E-02  3.9585649901E-01
  6.0250000000E+03  2.1446293008E+00  7.3911746141E+00  4.0446599822E-02  3.9485839610E-02  3.9606835269E-01
  6.0300000000E+03  2.1468411037E+00  7.3880513080E+00  4.0548821545E-02  3.9583919940E-02  3.9628001757E-01
  6.0350000000E+03  2.1490544869E+00  7.3849319089E+00  4.0651216301E-02  3.9682159033E-02  3.9649149414E-01
  6.0400000000E+03  2.1512683162E+00  7.3818164085E+00  4.0753784240E-02  3.9780556612E-02  3.9670278293E-01
  6.0450000000E+03  2.1534825914E+00  7.3787047988E+00  4.0856525510E-02  3.9879112785E-02  3.9691388443E-01
  6.0500000000E+03  2.1556973121E+00  7.3755970718E+00  4.0959440260E-02  3.9977827660E-02  3.9712479914E-01
  6.0550000000E+03  2.1579124782E+00  7.3724932194E+00  4.1062528637E-02  4.0076701342E-02  3.9733552758E-01
  6.0600000000E+03  2.1601280892E+00  7.3694425051E+00  4.1165790790E-02  4.0175735406E-02  3.9754607024E-01
  6.0650000000E+03  2.1623441449E+00  7.3664101509E+00  4.1269226869E-02  4.0274928942E-02  3.9775642762E-01
  6.0700000000E+03  2.1645606452E+00  7.3633815419E+00  4.1372837020E-02  4.0374281628E-02  3.9796660022E-01
  6.0750000000E+03  2.1667775895E+00  7.3603566701E+00  4.1476621393E-02  4.0473793570E-02  3.9817658852E-01
  6.0800000000E+03  2.1689949778E+00  7.3573355280E+00  4.1580580136E-02  4.0573464874E-02  3.9838639304E-01
  6.0850000000E+03  2.1712573789E+00  7.3543181080E+00  4.1684713398E-02  4.0673311290E-02  3.9859601425E-01
  6.0900000000E+03  2.1735367738E+00  7.3513044023E+00  4.1789021328E-02  4.0773323195E-02  3.9880545265E-01
  6.0950000000E+03  2.1758166881E+00  7.3482944033E+00  4.1893504072E-02  4.0873494933E-02  3.9901470873E-01
  6.1000000000E+03  2.1780971213E+00  7.3452881035E+00  4.1998161781E-02  4.0973826612E-02  3.9922378296E-01
  6.1050000000E+03  2.1803780732E+00  7.3422854953E+00  4.2102994603E-02  4.1074318339E-02  3.9943267585E-01
  6.1100000000E+03  2.1826595436E+00  7.3392865711E+00  4.2208002685E-02  4.1174970220E-02  3.9964138787E-01
  6.1150000000E+03  2.1849415320E+00  7.3362913234E+00  4.2313186177E-02  4.1275782363E-02  3.9984991949E-01
  6.1200000000E+03  2.1872240382E+00  7.3332997447E+00  4.2418545227E-02  4.1376754874E-02  4.0005827121E-01
  6.1250000000E+03  2.1895070618E+00  7.3303118276E+00  4.2524079984E-02  4.1477887861E-02  4.0026644350E-01
  6.1300000000E+03  2.1917906027E+00  7.3273275644E+00  4.2629790596E-02  4.1579181431E-02  4.0047443684E-01
  6.1350000000E+03  2.1940746604E+00  7.3243469479E+00  4.2735677211E-02  4.1680635690E-02  4.0068225170E-01
  6.1400000000E+03  2.1963593346E+00  7.3213699705E+00  4.2841739979E-02  4.1782250780E-02  4.0088988855E-01
  6.1450000000E+03  2.1986446352E+00  7.3183966249E+00  4.2947979047E-02  4.1884026813E-02  4.0109734787E-01
  6.1500000000E+03  2.2009304520E+00  7.3154269038E+00  4.3054394564E-02  4.1985963856E-02  4.0130463013E-01
  6.1550000000E+03  2.2032167848E+00  7.3124774444E+00  4.3160986678E-02  4.2088062565E-02  4.0151173579E-01
  6.1600000000E+03  2.2055036332E+00  7.3095760042E+00  4.3267755539E-02  4.2190323982E-02  4.0171866532E-01
  6.1650000000E+03  2.2077909969E+00  7.3066780679E+00  4.3374701295E-02  4.2292746748E-02  4.0192541919E-01
  6.1700000000E+03  2.2100788756E+00  7.3037836285E+00  4.3481824094E-02  4.2395330968E-02  4.0213199799E-01
  6.1750000000E+03  2.2123672690E+00  7.3008926789E+00  4.3589124084E-02  4.2498076748E-02  4.0233840227E-01
  6.1800000000E+03  2.2146561768E+00  7.2980052121E+00  4.3696601415E-02  4.2600984195E-02  4.0254463255E-01
  6.1850000000E+03  2.2169455987E+00  7.2951212211E+00  4.3804256234E-02  4.2704053414E-02  4.0275068934E-01
  6.1900000000E+03  2.2192355344E+00  7.2922406989E+00  4.3912088691E-02  4.2807284512E-02  4.0295657314E-01
  6.1950000000E+03  2.2215259804E+00  7.2893636385E+00  4.4020098933E-02  4.2910677593E-02  4.0316228445E-01
  6.2000000000E+03  2.2238169156E+00  7.2864900330E+00  4.4128287110E-02  4.3014232756E-02  4.0336782378E-01
  6.2050000000E+03  2.2261083636E+00  7.2836198755E+00  4.4236653370E-02  4.3117950114E-02  4.0357319163E-01
  6.2100000000E+03  2.2284003242E+00  7.2807531590E+00  4.4345197861E-02  4.3221829773E-02  4.0377838849E-01
  6.2150000000E+03  2.2306927971E+00  7.2778898766E+00  4.4453920733E-02  4.3325871840E-02  4.0398341486E-01
  6.2200000000E+03  2.2329857819E+00  7.2750300216E+00  4.4562822133E-02  4.3430076419E-02  4.0418827123E-01
  6.2250000000E+03  2.2352792785E+00  7.2721735869E+00  4.4671902210E-02  4.3534443616E-02  4.0439295811E-01
  6.2300000000E+03  2.2375732864E+00  7.2693205659E+00  4.4781161112E-02  4.3638973536E-02  4.0459747597E-01
  6.2350000000E+03  2.2398678054E+00  7.2664709516E+00  4.4890598989E-02  4.3743666284E-02  4.0480182531E-01
  6.2400000000E+03  2.2421628352E+00  7.2636247373E+00  4.5000215989E-02  4.3848521965E-02  4.0500600662E-01
  6.2450000000E+03  2.2444583755E+00  7.2607819162E+00  4.5110012260E-02  4.3953540685E-02  4.0521002038E-01
  6.2500000000E+03  2.2467544260E+00  7.2579424815E+00  4.5219987951E-02  4.4058722548E-02  4.0541386707E-01
  6.2550000000E+03  2.2490511479E+00  7.2551332660E+00  4.5330143211E-02  4.4164068717E-02  4.0561754718E-01
  6.2600000000E+03  2.2513484651E+00  7.2523589521E+00  4.5440478188E-02  4.4269579457E-02  4.0582106120E-01
  6.2650000000E+03  2.2536462919E+00  7.2495879129E+00  4.5550993030E-02  4.4375253677E-02  4.0602440959E-01
  6.2700000000E+03  2.2559446280E+00  7.2468201418E+00  4.5661687887E-02  4.4481091480E-02  4.0622759283E-01
  6.2750000000E+03  2.2582434732E+00  7.2440556324E+00  4.5772562906E-02  4.4587092972E-02  4.0643061141E-01
  6.2800000000E+03  2.2605428271E+00  7.2412943782E+00  4.5883618237E-02  4.4693258256E-02  4.0663346579E-01
  6.2850000000E+03  2.2628426895E+00  7.2385363729E+00  4.5994854028E-02  4.4799587438E-02  4.0683615646E-01
  6.2900000000E+03  2.2651430600E+00  7.2357816100E+00  4.6106270427E-02  4.4906080623E-02  4.0703868387E-01
  6.2950000000E+03  2.2674439384E+00  7.2330300832E+00  4.6217867583E-02  4.5012737913E-02  4.0724104850E-01
  6.3000000000E+03  2.2697453244E+00  7.2302817861E+00  4.6329645646E-02  4.5119559414E-02  4.0744325081E-01
  6.3050000000E+03  2.2720472176E+00  7.2275367123E+00  4.6441604762E-02  4.5226545229E-02  4.0764529128E-01
  6.3100000000E+03  2.2743495756E+00  7.2247948555E+00  4.6553745082E-02  4.5333695446E-02  4.0784717036E-01
  6.3150000000E+03  2.2766519904E+00  7.2220562094E+00  4.6666066753E-02  4.5441010006E-02  4.0804888853E-01
  6.3200000000E+03  2.2789549110E+00  7.2193207677E+00  4.6778569925E-02  4.5548489192E-02  4.0825044623E-01
  6.3250000000E+03  2.2812583372E+00  7.2165885241E+00  4.6891254745E-02  4.5656133107E-02  4.0845184393E-01
  6.3300000000E+03  2.2835622686E+00  7.2138594724E+00  4.7004121362E-02  4.5763941854E-02  4.0865308209E-01
  6.3350000000E+03  2.2858667049E+00  7.2111336063E+00  4.7117169926E-02  4.5871915537E-02  4.0885416117E-01
  6.3400000000E+03  2.2881716459E+00  7.2084109195E+00  4.7230400584E-02  4.5980054261E-02  4.0905508162E-01
  6.3450000000E+03  2.2904770912E+00  7.2056914059E+00  4.7343813486E-02  4.6088358128E-02  4.0925584389E-01
  6.3500000000E+03  2.2927830406E+00  7.2029750593E+00  4.7457408779E-02  4.6196827241E-02  4.0945644843E-01
