#[MATERIAL DEFINITION FOR MC-GPU: interaction mean free path and sampling data from PENELOPE 2018]
#[MATERIAL NAME]
# ribs                                                          
#[NOMINAL DENSITY (g/cm^3)]
#   1.09200000
#[NUMBER OF DATA VALUES]
#  23002
#[MEAN FREE PATHS (cm) (ie, average distance between interactions)]
#[Energy (eV)     | Rayleigh        | Compton         | Photoelectric   | TOTAL (+pair prod) (cm) | Rayleigh: max cumul prob F^2]
  5.0000000000E+03  1.7460586319E+00  7.5302740282E+00  1.7921307031E-02  1.7697543463E-02  3.1823489074E-01
  5.0050000000E+03  1.7479412350E+00  7.5263285712E+00  1.7972770595E-02  1.7747900481E-02  3.1848923624E-01
  5.0100000000E+03  1.7498239851E+00  7.5223891178E+00  1.8024329485E-02  1.7798348412E-02  3.1874336005E-01
  5.0150000000E+03  1.7517075585E+00  7.5184556529E+00  1.8075983779E-02  1.7848887391E-02  3.1899726269E-01
  5.0200000000E+03  1.7535916838E+00  7.5145281616E+00  1.8127733557E-02  1.7899517457E-02  3.1925094472E-01
  5.0250000000E+03  1.7554759570E+00  7.5106066287E+00  1.8179578897E-02  1.7950238632E-02  3.1950440666E-01
  5.0300000000E+03  1.7573603779E+00  7.5066910393E+00  1.8231519877E-02  1.8001050981E-02  3.1975764906E-01
  5.0350000000E+03  1.7592449463E+00  7.5027813786E+00  1.8283556577E-02  1.8051954570E-02  3.2001067244E-01
  5.0400000000E+03  1.7611296622E+00  7.4988776316E+00  1.8335689075E-02  1.8102949464E-02  3.2026347733E-01
  5.0450000000E+03  1.7630145254E+00  7.4949797836E+00  1.8387917449E-02  1.8154035726E-02  3.2051606428E-01
  5.0500000000E+03  1.7648995358E+00  7.4910878199E+00  1.8440241778E-02  1.8205213423E-02  3.2076843381E-01
  5.0550000000E+03  1.7667846931E+00  7.4872017256E+00  1.8492662141E-02  1.8256482619E-02  3.2102058644E-01
  5.0600000000E+03  1.7686772778E+00  7.4833214863E+00  1.8545178616E-02  1.8307844159E-02  3.2127252269E-01
  5.0650000000E+03  1.7705835463E+00  7.4794470872E+00  1.8597791281E-02  1.8359298788E-02  3.2152424311E-01
  5.0700000000E+03  1.7724899854E+00  7.4755785139E+00  1.8650500215E-02  1.8410845129E-02  3.2177574820E-01
  5.0750000000E+03  1.7743965950E+00  7.4717157518E+00  1.8703305496E-02  1.8462483245E-02  3.2202703849E-01
  5.0800000000E+03  1.7763033750E+00  7.4678587865E+00  1.8756207203E-02  1.8514213203E-02  3.2227811449E-01
  5.0850000000E+03  1.7782103251E+00  7.4640687099E+00  1.8809205415E-02  1.8566035443E-02  3.2252897673E-01
  5.0900000000E+03  1.7801174453E+00  7.4602902043E+00  1.8862300209E-02  1.8617949694E-02  3.2277962572E-01
  5.0950000000E+03  1.7820247353E+00  7.4565173186E+00  1.8915491664E-02  1.8669955985E-02  3.2303006197E-01
  5.1000000000E+03  1.7839321951E+00  7.4527500388E+00  1.8968779858E-02  1.8722054378E-02  3.2328028600E-01
  5.1050000000E+03  1.7858398245E+00  7.4489883511E+00  1.9022164871E-02  1.8774244940E-02  3.2353029832E-01
  5.1100000000E+03  1.7877523421E+00  7.4452322419E+00  1.9075646779E-02  1.8826528257E-02  3.2378009944E-01
  5.1150000000E+03  1.7896650822E+00  7.4414816974E+00  1.9129225661E-02  1.8878903881E-02  3.2402968986E-01
  5.1200000000E+03  1.7915779970E+00  7.4377367038E+00  1.9182901596E-02  1.8931371869E-02  3.2427907010E-01
  5.1250000000E+03  1.7934910862E+00  7.4339972476E+00  1.9236674663E-02  1.8983932287E-02  3.2452824066E-01
  5.1300000000E+03  1.7954043498E+00  7.4302633153E+00  1.9290544938E-02  1.9036585199E-02  3.2477720204E-01
  5.1350000000E+03  1.7973177876E+00  7.4265348932E+00  1.9344512500E-02  1.9089330669E-02  3.2502595474E-01
  5.1400000000E+03  1.7992313993E+00  7.4228119679E+00  1.9398577428E-02  1.9142168760E-02  3.2527449922E-01
  5.1450000000E+03  1.8011451850E+00  7.4190945259E+00  1.9452739800E-02  1.9195099538E-02  3.2552283576E-01
  5.1500000000E+03  1.8030591444E+00  7.4153825539E+00  1.9506999694E-02  1.9248123066E-02  3.2577096490E-01
  5.1550000000E+03  1.8049747209E+00  7.4116760385E+00  1.9561357188E-02  1.9301239573E-02  3.2601888717E-01
  5.1600000000E+03  1.8068916931E+00  7.4079749664E+00  1.9615812360E-02  1.9354449099E-02  3.2626660313E-01
  5.1650000000E+03  1.8088088416E+00  7.4043151926E+00  1.9670365289E-02  1.9407751816E-02  3.2651411331E-01
  5.1700000000E+03  1.8107261663E+00  7.4006896270E+00  1.9725016052E-02  1.9461147743E-02  3.2676141824E-01
  5.1750000000E+03  1.8126436671E+00  7.3970693389E+00  1.9779764727E-02  1.9514636748E-02  3.2700851848E-01
  5.1800000000E+03  1.8145613437E+00  7.3934543153E+00  1.9834611394E-02  1.9568218893E-02  3.2725541454E-01
  5.1850000000E+03  1.8164791960E+00  7.3898445436E+00  1.9889556129E-02  1.9621894243E-02  3.2750210697E-01
  5.1900000000E+03  1.8183972238E+00  7.3862400110E+00  1.9944599011E-02  1.9675662861E-02  3.2774859630E-01
  5.1950000000E+03  1.8203154271E+00  7.3826407050E+00  1.9999740117E-02  1.9729524810E-02  3.2799488306E-01
  5.2000000000E+03  1.8222338116E+00  7.3790466130E+00  2.0054979526E-02  1.9783480156E-02  3.2824096777E-01
  5.2050000000E+03  1.8241531104E+00  7.3754577223E+00  2.0110317316E-02  1.9837529048E-02  3.2848685096E-01
  5.2100000000E+03  1.8260725849E+00  7.3718740206E+00  2.0165753565E-02  1.9891671463E-02  3.2873253316E-01
  5.2150000000E+03  1.8279922352E+00  7.3682954952E+00  2.0221288350E-02  1.9945907465E-02  3.2897801489E-01
  5.2200000000E+03  1.8299120609E+00  7.3647221338E+00  2.0276921750E-02  2.0000237117E-02  3.2922329668E-01
  5.2250000000E+03  1.8318320620E+00  7.3611539240E+00  2.0332653843E-02  2.0054660482E-02  3.2946837904E-01
  5.2300000000E+03  1.8337522383E+00  7.3575908534E+00  2.0388484705E-02  2.0109177624E-02  3.2971326249E-01
  5.2350000000E+03  1.8356725896E+00  7.3540329097E+00  2.0444414416E-02  2.0163788606E-02  3.2995794755E-01
  5.2400000000E+03  1.8375931158E+00  7.3504800808E+00  2.0500443054E-02  2.0218493491E-02  3.3020243473E-01
  5.2450000000E+03  1.8395138167E+00  7.3469323543E+00  2.0556615351E-02  2.0273335776E-02  3.3044672455E-01
  5.2500000000E+03  1.8414370705E+00  7.3434480364E+00  2.0613075357E-02  2.0328456276E-02  3.3069081752E-01
  5.2550000000E+03  1.8433642866E+00  7.3399728758E+00  2.0669635693E-02  2.0383672485E-02  3.3093471415E-01
  5.2600000000E+03  1.8452916840E+00  7.3365026624E+00  2.0726296440E-02  2.0438983977E-02  3.3117841496E-01
  5.2650000000E+03  1.8472192625E+00  7.3330373844E+00  2.0783057679E-02  2.0494390817E-02  3.3142192043E-01
  5.2700000000E+03  1.8491470221E+00  7.3295770302E+00  2.0839919490E-02  2.0549893070E-02  3.3166523109E-01
  5.2750000000E+03  1.8510749624E+00  7.3261215880E+00  2.0896881952E-02  2.0605490802E-02  3.3190834744E-01
  5.2800000000E+03  1.8530030834E+00  7.3226710463E+00  2.0953945147E-02  2.0661184078E-02  3.3215126998E-01
  5.2850000000E+03  1.8549313849E+00  7.3192253935E+00  2.1011109155E-02  2.0716972963E-02  3.3239399921E-01
  5.2900000000E+03  1.8568598668E+00  7.3157846181E+00  2.1068374056E-02  2.0772857523E-02  3.3263653563E-01
  5.2950000000E+03  1.8587885289E+00  7.3123487084E+00  2.1125739931E-02  2.0828837822E-02  3.3287887973E-01
  5.3000000000E+03  1.8607277475E+00  7.3089176532E+00  2.1183206859E-02  2.0884915232E-02  3.3312103203E-01
  5.3050000000E+03  1.8626721795E+00  7.3054914408E+00  2.1240774921E-02  2.0941089156E-02  3.3336299300E-01
  5.3100000000E+03  1.8646168088E+00  7.3020700601E+00  2.1298444197E-02  2.0997359030E-02  3.3360476315E-01
  5.3150000000E+03  1.8665616352E+00  7.2986534995E+00  2.1356214768E-02  2.1053724918E-02  3.3384634296E-01
  5.3200000000E+03  1.8685066585E+00  7.2952417478E+00  2.1414086713E-02  2.1110186885E-02  3.3408773293E-01
  5.3250000000E+03  1.8704518786E+00  7.2918347937E+00  2.1472060114E-02  2.1166744997E-02  3.3432893355E-01
  5.3300000000E+03  1.8723972952E+00  7.2884353057E+00  2.1530135049E-02  2.1223399340E-02  3.3456994530E-01
  5.3350000000E+03  1.8743429083E+00  7.2850982733E+00  2.1588311600E-02  2.1280150449E-02  3.3481076868E-01
  5.3400000000E+03  1.8762887176E+00  7.2817658927E+00  2.1646589846E-02  2.1336997901E-02  3.3505140415E-01
  5.3450000000E+03  1.8782347231E+00  7.2784381529E+00  2.1704969868E-02  2.1393941763E-02  3.3529185222E-01
  5.3500000000E+03  1.8801844083E+00  7.2751150434E+00  2.1763451745E-02  2.1450982550E-02  3.3553211336E-01
  5.3550000000E+03  1.8821348049E+00  7.2717965531E+00  2.1822035558E-02  2.1508119946E-02  3.3577218804E-01
  5.3600000000E+03  1.8840854017E+00  7.2684826715E+00  2.1880721387E-02  2.1565353949E-02  3.3601207676E-01
  5.3650000000E+03  1.8860361985E+00  7.2651733879E+00  2.1939509312E-02  2.1622684622E-02  3.3625177999E-01
  5.3700000000E+03  1.8879871951E+00  7.2618686915E+00  2.1998399413E-02  2.1680112030E-02  3.3649129820E-01
  5.3750000000E+03  1.8899383913E+00  7.2585685718E+00  2.2057391770E-02  2.1737636239E-02  3.3673063187E-01
  5.3800000000E+03  1.8918897871E+00  7.2552730182E+00  2.2116486463E-02  2.1795257311E-02  3.3696978147E-01
  5.3850000000E+03  1.8938413821E+00  7.2519820202E+00  2.2175683572E-02  2.1852975312E-02  3.3720874747E-01
  5.3900000000E+03  1.8957931763E+00  7.2486955671E+00  2.2234983177E-02  2.1910790306E-02  3.3744753035E-01
  5.3950000000E+03  1.8977451695E+00  7.2454136486E+00  2.2294385359E-02  2.1968702357E-02  3.3768613058E-01
  5.4000000000E+03  1.8996976661E+00  7.2421362541E+00  2.2353890196E-02  2.2026711570E-02  3.3792454862E-01
  5.4050000000E+03  1.9016503686E+00  7.2388633734E+00  2.2413497770E-02  2.2084817969E-02  3.3816278493E-01
  5.4100000000E+03  1.9036032700E+00  7.2355949959E+00  2.2473208159E-02  2.2143021619E-02  3.3840084000E-01
  5.4150000000E+03  1.9055563700E+00  7.2323311113E+00  2.2533021444E-02  2.2201322582E-02  3.3863871427E-01
  5.4200000000E+03  1.9075096686E+00  7.2291232438E+00  2.2592937705E-02  2.2259721412E-02  3.3887640821E-01
  5.4250000000E+03  1.9094631655E+00  7.2259265168E+00  2.2652957022E-02  2.2318217753E-02  3.3911392228E-01
  5.4300000000E+03  1.9114168606E+00  7.2227341465E+00  2.2713079474E-02  2.2376811606E-02  3.3935125695E-01
  5.4350000000E+03  1.9133707537E+00  7.2195461228E+00  2.2773305142E-02  2.2435503034E-02  3.3958841267E-01
  5.4400000000E+03  1.9153248448E+00  7.2163624358E+00  2.2833634104E-02  2.2494292101E-02  3.3982538989E-01
  5.4450000000E+03  1.9172791335E+00  7.2131830757E+00  2.2894066442E-02  2.2553178872E-02  3.4006218908E-01
  5.4500000000E+03  1.9192824455E+00  7.2100080325E+00  2.2954602235E-02  2.2612170187E-02  3.4029881069E-01
  5.4550000000E+03  1.9212863056E+00  7.2068372966E+00  2.3015241563E-02  2.2671259424E-02  3.4053525517E-01
  5.4600000000E+03  1.9232904191E+00  7.2036708581E+00  2.3075984504E-02  2.2730446607E-02  3.4077152298E-01
  5.4650000000E+03  1.9252947859E+00  7.2005087072E+00  2.3136831140E-02  2.2789731799E-02  3.4100761456E-01
  5.4700000000E+03  1.9272994056E+00  7.1973508343E+00  2.3197781551E-02  2.2849115064E-02  3.4124353037E-01
  5.4750000000E+03  1.9293042782E+00  7.1941972296E+00  2.3258835814E-02  2.2908596466E-02  3.4147927085E-01
  5.4800000000E+03  1.9313094034E+00  7.1910478835E+00  2.3319994011E-02  2.2968176068E-02  3.4171483645E-01
  5.4850000000E+03  1.9333147810E+00  7.1879027864E+00  2.3381256222E-02  2.3027853934E-02  3.4195022762E-01
  5.4900000000E+03  1.9353204108E+00  7.1847619286E+00  2.3442622525E-02  2.3087630128E-02  3.4218544480E-01
  5.4950000000E+03  1.9373262926E+00  7.1816253006E+00  2.3504093001E-02  2.3147504714E-02  3.4242048843E-01
  5.5000000000E+03  1.9393345914E+00  7.1784928929E+00  2.3565667728E-02  2.3207478063E-02  3.4265535896E-01
  5.5050000000E+03  1.9413433378E+00  7.1753898489E+00  2.3627634304E-02  2.3267829052E-02  3.4289005683E-01
  5.5100000000E+03  1.9433523384E+00  7.1723220238E+00  2.3689706521E-02  2.3328280117E-02  3.4312458247E-01
  5.5150000000E+03  1.9453615929E+00  7.1692582911E+00  2.3751884460E-02  2.3388830996E-02  3.4335893633E-01
  5.5200000000E+03  1.9473711012E+00  7.1661986417E+00  2.3814168203E-02  2.3449481756E-02  3.4359311885E-01
  5.5250000000E+03  1.9493808631E+00  7.1631430664E+00  2.3876557833E-02  2.3510232462E-02  3.4382713045E-01
  5.5300000000E+03  1.9513908783E+00  7.1600915563E+00  2.3939053431E-02  2.3571083178E-02  3.4406097157E-01
  5.5350000000E+03  1.9534011467E+00  7.1570441021E+00  2.4001655078E-02  2.3632033971E-02  3.4429464266E-01
  5.5400000000E+03  1.9554116681E+00  7.1540006949E+00  2.4064362856E-02  2.3693084904E-02  3.4452814413E-01
  5.5450000000E+03  1.9574224423E+00  7.1509613256E+00  2.4127176847E-02  2.3754236043E-02  3.4476147643E-01
  5.5500000000E+03  1.9594393863E+00  7.1479259852E+00  2.4190097133E-02  2.3815488326E-02  3.4499463997E-01
  5.5550000000E+03  1.9614585843E+00  7.1448946648E+00  2.4253123795E-02  2.3876841248E-02  3.4522763520E-01
  5.5600000000E+03  1.9634780437E+00  7.1418673554E+00  2.4316256915E-02  2.3938294578E-02  3.4546046253E-01
  5.5650000000E+03  1.9654977641E+00  7.1388440482E+00  2.4379496575E-02  2.3999848382E-02  3.4569312240E-01
  5.5700000000E+03  1.9675177455E+00  7.1358247342E+00  2.4442842856E-02  2.4061502725E-02  3.4592561523E-01
  5.5750000000E+03  1.9695379876E+00  7.1328094046E+00  2.4506295840E-02  2.4123257671E-02  3.4615794145E-01
  5.5800000000E+03  1.9715584902E+00  7.1297980506E+00  2.4569855608E-02  2.4185113284E-02  3.4639010147E-01
  5.5850000000E+03  1.9735792532E+00  7.1267906633E+00  2.4633522242E-02  2.4247069631E-02  3.4662209573E-01
  5.5900000000E+03  1.9756002763E+00  7.1237872341E+00  2.4697295824E-02  2.4309126774E-02  3.4685392463E-01
  5.5950000000E+03  1.9776215593E+00  7.1208271069E+00  2.4761176435E-02  2.4371285240E-02  3.4708558861E-01
  5.6000000000E+03  1.9796480881E+00  7.1178854081E+00  2.4825164156E-02  2.4433545568E-02  3.4731708807E-01
  5.6050000000E+03  1.9816802010E+00  7.1149475482E+00  2.4889259070E-02  2.4495907711E-02  3.4754842344E-01
  5.6100000000E+03  1.9837125851E+00  7.1120135189E+00  2.4953461257E-02  2.4558370926E-02  3.4777959514E-01
  5.6150000000E+03  1.9857452402E+00  7.1090833117E+00  2.5017770799E-02  2.4620935279E-02  3.4801060358E-01
  5.6200000000E+03  1.9877781661E+00  7.1061569183E+00  2.5082187778E-02  2.4683600833E-02  3.4824144916E-01
  5.6250000000E+03  1.9898113627E+00  7.1032343303E+00  2.5146712275E-02  2.4746367654E-02  3.4847213232E-01
  5.6300000000E+03  1.9918448296E+00  7.1003155394E+00  2.5211344372E-02  2.4809235804E-02  3.4870265354E-01
  5.6350000000E+03  1.9938785667E+00  7.0974005373E+00  2.5276084149E-02  2.4872205348E-02  3.4893301360E-01
  5.6400000000E+03  1.9959125738E+00  7.0944893157E+00  2.5340931689E-02  2.4935276352E-02  3.4916321300E-01
  5.6450000000E+03  1.9979468507E+00  7.0915818664E+00  2.5405887073E-02  2.4998448877E-02  3.4939325221E-01
  5.6500000000E+03  1.9999815038E+00  7.0886781811E+00  2.5470950381E-02  2.5061723006E-02  3.4962313167E-01
  5.6550000000E+03  2.0020171660E+00  7.0857782517E+00  2.5536121697E-02  2.5125098903E-02  3.4985285184E-01
  5.6600000000E+03  2.0040530983E+00  7.0828820699E+00  2.5601401100E-02  2.5188576515E-02  3.5008241316E-01
  5.6650000000E+03  2.0060893006E+00  7.0799896277E+00  2.5666788672E-02  2.5252155906E-02  3.5031181608E-01
  5.6700000000E+03  2.0081257726E+00  7.0771009169E+00  2.5732284495E-02  2.5315837141E-02  3.5054106105E-01
  5.6750000000E+03  2.0101625142E+00  7.0742159294E+00  2.5797888650E-02  2.5379620284E-02  3.5077014851E-01
  5.6800000000E+03  2.0121995251E+00  7.0713346571E+00  2.5863601218E-02  2.5443505397E-02  3.5099907892E-01
  5.6850000000E+03  2.0142368051E+00  7.0684946381E+00  2.5929422281E-02  2.5507493034E-02  3.5122785270E-01
  5.6900000000E+03  2.0162743541E+00  7.0656723285E+00  2.5995351919E-02  2.5571582958E-02  3.5145647031E-01
  5.6950000000E+03  2.0183121718E+00  7.0628536232E+00  2.6061390214E-02  2.5635775052E-02  3.5168493219E-01
  5.7000000000E+03  2.0203502581E+00  7.0600385146E+00  2.6127537247E-02  2.5700069378E-02  3.5191323878E-01
  5.7050000000E+03  2.0223885670E+00  7.0572269948E+00  2.6193793100E-02  2.5764465992E-02  3.5214139050E-01
  5.7100000000E+03  2.0244271218E+00  7.0544190562E+00  2.6260157854E-02  2.5828964963E-02  3.5236938781E-01
  5.7150000000E+03  2.0264659445E+00  7.0516146911E+00  2.6326631589E-02  2.5893566356E-02  3.5259723114E-01
  5.7200000000E+03  2.0285050348E+00  7.0488138918E+00  2.6393214387E-02  2.5958270236E-02  3.5282492091E-01
  5.7250000000E+03  2.0305443926E+00  7.0460166506E+00  2.6459906330E-02  2.6023076666E-02  3.5305245757E-01
  5.7300000000E+03  2.0325840176E+00  7.0432229600E+00  2.6526707498E-02  2.6087985709E-02  3.5327984155E-01
  5.7350000000E+03  2.0346239097E+00  7.0404328124E+00  2.6593617973E-02  2.6152997428E-02  3.5350707328E-01
  5.7400000000E+03  2.0366640687E+00  7.0376462001E+00  2.6660637835E-02  2.6218111887E-02  3.5373415318E-01
  5.7450000000E+03  2.0387044944E+00  7.0348631156E+00  2.6727767166E-02  2.6283329149E-02  3.5396108169E-01
  5.7500000000E+03  2.0407451865E+00  7.0320835514E+00  2.6795006047E-02  2.6348649277E-02  3.5418785924E-01
  5.7550000000E+03  2.0427865391E+00  7.0293074999E+00  2.6862354559E-02  2.6414072400E-02  3.5441448624E-01
  5.7600000000E+03  2.0448310514E+00  7.0265349538E+00  2.6929812783E-02  2.6479599001E-02  3.5464096313E-01
  5.7650000000E+03  2.0468758332E+00  7.0237659054E+00  2.6997380800E-02  2.6545228661E-02  3.5486729033E-01
  5.7700000000E+03  2.0489208844E+00  7.0210003475E+00  2.7065058691E-02  2.6610961442E-02  3.5509346826E-01
  5.7750000000E+03  2.0509662048E+00  7.0182597652E+00  2.7132846538E-02  2.6676797720E-02  3.5531949734E-01
  5.7800000000E+03  2.0530117942E+00  7.0155505444E+00  2.7200744420E-02  2.6742737654E-02  3.5554537800E-01
  5.7850000000E+03  2.0550576524E+00  7.0128447107E+00  2.7268752420E-02  2.6808780905E-02  3.5577111065E-01
  5.7900000000E+03  2.0571037793E+00  7.0101422569E+00  2.7336870618E-02  2.6874927537E-02  3.5599669571E-01
  5.7950000000E+03  2.0591501745E+00  7.0074431758E+00  2.7405099095E-02  2.6941177612E-02  3.5622213360E-01
  5.8000000000E+03  2.0611968379E+00  7.0047474605E+00  2.7473437932E-02  2.7007531193E-02  3.5644742474E-01
  5.8050000000E+03  2.0632437694E+00  7.0020551037E+00  2.7541887210E-02  2.7073988343E-02  3.5667256953E-01
  5.8100000000E+03  2.0652914540E+00  6.9993660984E+00  2.7610447010E-02  2.7140549208E-02  3.5689756840E-01
  5.8150000000E+03  2.0673399499E+00  6.9966804376E+00  2.7679117413E-02  2.7207213861E-02  3.5712242175E-01
  5.8200000000E+03  2.0693887143E+00  6.9939981142E+00  2.7747898500E-02  2.7273982272E-02  3.5734713000E-01
  5.8250000000E+03  2.0714377472E+00  6.9913191212E+00  2.7816790352E-02  2.7340854503E-02  3.5757169356E-01
  5.8300000000E+03  2.0734870482E+00  6.9886434516E+00  2.7885793049E-02  2.7407830617E-02  3.5779611283E-01
  5.8350000000E+03  2.0755366173E+00  6.9859710985E+00  2.7954906672E-02  2.7474910675E-02  3.5802038823E-01
  5.8400000000E+03  2.0775864541E+00  6.9833020549E+00  2.8024131303E-02  2.7542094740E-02  3.5824452016E-01
  5.8450000000E+03  2.0796365586E+00  6.9806363139E+00  2.8093467022E-02  2.7609382875E-02  3.5846850903E-01
  5.8500000000E+03  2.0816869305E+00  6.9779738686E+00  2.8162913910E-02  2.7676775142E-02  3.5869235524E-01
  5.8550000000E+03  2.0837375696E+00  6.9753147120E+00  2.8232472048E-02  2.7744271602E-02  3.5891605920E-01
  5.8600000000E+03  2.0857884757E+00  6.9726588374E+00  2.8302141516E-02  2.7811872319E-02  3.5913962131E-01
  5.8650000000E+03  2.0878396375E+00  6.9700062378E+00  2.8371922395E-02  2.7879577351E-02  3.5936304198E-01
  5.8700000000E+03  2.0898910617E+00  6.9673970036E+00  2.8441814767E-02  2.7947387409E-02  3.5958632159E-01
  5.8750000000E+03  2.0919427523E+00  6.9647981580E+00  2.8511818711E-02  2.8015302030E-02  3.5980946056E-01
  5.8800000000E+03  2.0939947092E+00  6.9622024913E+00  2.8581934309E-02  2.8083321164E-02  3.6003245928E-01
  5.8850000000E+03  2.0960469321E+00  6.9596099970E+00  2.8652161641E-02  2.8151444870E-02  3.6025531815E-01
  5.8900000000E+03  2.0980994209E+00  6.9570206685E+00  2.8722500788E-02  2.8219673212E-02  3.6047803757E-01
  5.8950000000E+03  2.1001521753E+00  6.9544344994E+00  2.8792951831E-02  2.8288006251E-02  3.6070061792E-01
  5.9000000000E+03  2.1022051952E+00  6.9518514829E+00  2.8863514850E-02  2.8356444049E-02  3.6092305962E-01
  5.9050000000E+03  2.1042584804E+00  6.9492716127E+00  2.8934189926E-02  2.8424986667E-02  3.6114536304E-01
  5.9100000000E+03  2.1063120307E+00  6.9466948823E+00  2.9004977140E-02  2.8493634167E-02  3.6136752859E-01
  5.9150000000E+03  2.1083658459E+00  6.9441212851E+00  2.9075876572E-02  2.8562386612E-02  3.6158955665E-01
  5.9200000000E+03  2.1104213330E+00  6.9415508147E+00  2.9146888303E-02  2.8631244321E-02  3.6181144762E-01
  5.9250000000E+03  2.1124772854E+00  6.9389834647E+00  2.9218012413E-02  2.8700207136E-02  3.6203320189E-01
  5.9300000000E+03  2.1145335039E+00  6.9364192287E+00  2.9289248984E-02  2.8769275081E-02  3.6225481983E-01
  5.9350000000E+03  2.1165899884E+00  6.9338581002E+00  2.9360598095E-02  2.8838448218E-02  3.6247630185E-01
  5.9400000000E+03  2.1186467386E+00  6.9313000730E+00  2.9432059828E-02  2.8907726608E-02  3.6269764833E-01
  5.9450000000E+03  2.1207037543E+00  6.9287451406E+00  2.9503634262E-02  2.8977110314E-02  3.6291885966E-01
  5.9500000000E+03  2.1227610354E+00  6.9261932966E+00  2.9575321479E-02  2.9046599395E-02  3.6313993621E-01
  5.9550000000E+03  2.1248185816E+00  6.9236445348E+00  2.9647121559E-02  2.9116193914E-02  3.6336087838E-01
  5.9600000000E+03  2.1268763929E+00  6.9210988489E+00  2.9719034582E-02  2.9185893931E-02  3.6358168654E-01
  5.9650000000E+03  2.1289344688E+00  6.9185997407E+00  2.9791060629E-02  2.9255700286E-02  3.6380236108E-01
  5.9700000000E+03  2.1309928094E+00  6.9161053605E+00  2.9863199781E-02  2.9325612300E-02  3.6402290239E-01
  5.9750000000E+03  2.1330660941E+00  6.9136139668E+00  2.9935452117E-02  2.9395632792E-02  3.6424331083E-01
  5.9800000000E+03  2.1351407648E+00  6.9111255533E+00  3.0007817719E-02  2.9465759263E-02  3.6446358679E-01
  5.9850000000E+03  2.1372157168E+00  6.9086401142E+00  3.0080296666E-02  2.9535991567E-02  3.6468373066E-01
  5.9900000000E+03  2.1392909500E+00  6.9061576433E+00  3.0152889040E-02  2.9606329763E-02  3.6490374279E-01
  5.9950000000E+03  2.1413664642E+00  6.9036781346E+00  3.0225594920E-02  2.9676773914E-02  3.6512362358E-01
  6.0000000000E+03  2.1434422592E+00  6.9012015821E+00  3.0298414388E-02  2.9747324079E-02  3.6534337340E-01
  6.0050000000E+03  2.1455183349E+00  6.8987279799E+00  3.0371973425E-02  2.9818583622E-02  3.6556299262E-01
  6.0100000000E+03  2.1475946909E+00  6.8962573219E+00  3.0445648758E-02  2.9889951680E-02  3.6578248162E-01
  6.0150000000E+03  2.1496713272E+00  6.8937896022E+00  3.0519440469E-02  2.9961428315E-02  3.6600184076E-01
  6.0200000000E+03  2.1517482435E+00  6.8913248150E+00  3.0593348645E-02  3.0033013593E-02  3.6622107043E-01
  6.0250000000E+03  2.1538254396E+00  6.8888629542E+00  3.0667373370E-02  3.0104707579E-02  3.6644017099E-01
  6.0300000000E+03  2.1559080098E+00  6.8864040140E+00  3.0741514729E-02  3.0176511333E-02  3.6665914282E-01
  6.0350000000E+03  2.1579915601E+00  6.8839479885E+00  3.0815772806E-02  3.0248424067E-02  3.6687798628E-01
  6.0400000000E+03  2.1600753960E+00  6.8814948718E+00  3.0890147686E-02  3.0320445708E-02  3.6709670174E-01
  6.0450000000E+03  2.1621595174E+00  6.8790446581E+00  3.0964639454E-02  3.0392576321E-02  3.6731528956E-01
  6.0500000000E+03  2.1642439240E+00  6.8765973415E+00  3.1039248194E-02  3.0464815970E-02  3.6753375013E-01
  6.0550000000E+03  2.1663286156E+00  6.8741529162E+00  3.1113973992E-02  3.0537164719E-02  3.6775208380E-01
  6.0600000000E+03  2.1684135920E+00  6.8717447737E+00  3.1188816932E-02  3.0609623294E-02  3.6797029093E-01
  6.0650000000E+03  2.1704988530E+00  6.8693493451E+00  3.1263777099E-02  3.0682191301E-02  3.6818837190E-01
  6.0700000000E+03  2.1725843985E+00  6.8669567246E+00  3.1338854576E-02  3.0754868607E-02  3.6840632706E-01
  6.0750000000E+03  2.1746702282E+00  6.8645669064E+00  3.1414049450E-02  3.0827655278E-02  3.6862415678E-01
  6.0800000000E+03  2.1767563420E+00  6.8621798850E+00  3.1489361804E-02  3.0900551376E-02  3.6884186145E-01
  6.0850000000E+03  2.1788708235E+00  6.8597956549E+00  3.1564791724E-02  3.0973562641E-02  3.6905944175E-01
  6.0900000000E+03  2.1809960127E+00  6.8574142104E+00  3.1640339293E-02  3.1046685606E-02  3.6927689811E-01
  6.0950000000E+03  2.1831215282E+00  6.8550355460E+00  3.1716004596E-02  3.1119918241E-02  3.6949423091E-01
  6.1000000000E+03  2.1852473696E+00  6.8526596563E+00  3.1791787719E-02  3.1193260612E-02  3.6971144052E-01
  6.1050000000E+03  2.1873735367E+00  6.8502865356E+00  3.1867688745E-02  3.1266712782E-02  3.6992852729E-01
  6.1100000000E+03  2.1895000294E+00  6.8479161786E+00  3.1943707759E-02  3.1340274814E-02  3.7014549159E-01
  6.1150000000E+03  2.1916268474E+00  6.8455485797E+00  3.2019844846E-02  3.1413946773E-02  3.7036233380E-01
  6.1200000000E+03  2.1937539905E+00  6.8431837335E+00  3.2096100089E-02  3.1487728722E-02  3.7057905427E-01
  6.1250000000E+03  2.1958814584E+00  6.8408216345E+00  3.2172473575E-02  3.1561620725E-02  3.7079565336E-01
  6.1300000000E+03  2.1980092510E+00  6.8384622773E+00  3.2248965386E-02  3.1635622845E-02  3.7101213144E-01
  6.1350000000E+03  2.2001373681E+00  6.8361056564E+00  3.2325575609E-02  3.1709735146E-02  3.7122848887E-01
  6.1400000000E+03  2.2022655316E+00  6.8337517666E+00  3.2402304326E-02  3.1783957633E-02  3.7144472601E-01
  6.1450000000E+03  2.2043937131E+00  6.8314006024E+00  3.2479151623E-02  3.1858290363E-02  3.7166084322E-01
  6.1500000000E+03  2.2065222177E+00  6.8290521584E+00  3.2556117584E-02  3.1932733464E-02  3.7187684085E-01
  6.1550000000E+03  2.2086510452E+00  6.8267177120E+00  3.2633202294E-02  3.2007287247E-02  3.7209271927E-01
  6.1600000000E+03  2.2107801955E+00  6.8244160817E+00  3.2710405837E-02  3.2081952194E-02  3.7230847883E-01
  6.1650000000E+03  2.2129096682E+00  6.8221170939E+00  3.2787728297E-02  3.2156727710E-02  3.7252411988E-01
  6.1700000000E+03  2.2150394633E+00  6.8198207435E+00  3.2865169759E-02  3.2231613857E-02  3.7273964279E-01
  6.1750000000E+03  2.2171695804E+00  6.8175270252E+00  3.2942730307E-02  3.2306610699E-02  3.7295504790E-01
  6.1800000000E+03  2.2193000194E+00  6.8152359339E+00  3.3020410026E-02  3.2381718299E-02  3.7317033557E-01
  6.1850000000E+03  2.2214307801E+00  6.8129474645E+00  3.3098208999E-02  3.2456936720E-02  3.7338550615E-01
  6.1900000000E+03  2.2235618622E+00  6.8106616119E+00  3.3176127313E-02  3.2532266025E-02  3.7360056000E-01
  6.1950000000E+03  2.2256932065E+00  6.8083783709E+00  3.3254165049E-02  3.2607706264E-02  3.7381549746E-01
  6.2000000000E+03  2.2278244302E+00  6.8060977366E+00  3.3332322294E-02  3.2683257418E-02  3.7403031889E-01
  6.2050000000E+03  2.2299559741E+00  6.8038197037E+00  3.3410599132E-02  3.2758919644E-02  3.7424502463E-01
  6.2100000000E+03  2.2320878381E+00  6.8015442673E+00  3.3488995645E-02  3.2834693005E-02  3.7445961503E-01
  6.2150000000E+03  2.2342200219E+00  6.7992714224E+00  3.3567511920E-02  3.2910577563E-02  3.7467409045E-01
  6.2200000000E+03  2.2363525253E+00  6.7970011637E+00  3.3646148041E-02  3.2986573382E-02  3.7488845122E-01
  6.2250000000E+03  2.2384853482E+00  6.7947334865E+00  3.3724904091E-02  3.3062680523E-02  3.7510269770E-01
  6.2300000000E+03  2.2406184903E+00  6.7924683856E+00  3.3803780154E-02  3.3138899050E-02  3.7531683022E-01
  6.2350000000E+03  2.2427519514E+00  6.7902058560E+00  3.3882776316E-02  3.3215229025E-02  3.7553084914E-01
  6.2400000000E+03  2.2448857313E+00  6.7879458928E+00  3.3961892660E-02  3.3291670511E-02  3.7574475480E-01
  6.2450000000E+03  2.2470198298E+00  6.7856884911E+00  3.4041129271E-02  3.3368223570E-02  3.7595854753E-01
  6.2500000000E+03  2.2491542466E+00  6.7834336458E+00  3.4120486233E-02  3.3444888264E-02  3.7617222769E-01
  6.2550000000E+03  2.2512893892E+00  6.7811995464E+00  3.4199963630E-02  3.3521665190E-02  3.7638579562E-01
  6.2600000000E+03  2.2534250659E+00  6.7789893700E+00  3.4279561546E-02  3.3598554455E-02  3.7659925165E-01
  6.2650000000E+03  2.2555610611E+00  6.7767816777E+00  3.4359280065E-02  3.3675555553E-02  3.7681259612E-01
  6.2700000000E+03  2.2576973745E+00  6.7745764647E+00  3.4439119272E-02  3.3752668544E-02  3.7702582939E-01
  6.2750000000E+03  2.2598340060E+00  6.7723737263E+00  3.4519079251E-02  3.3829893492E-02  3.7723895177E-01
  6.2800000000E+03  2.2619709552E+00  6.7701734578E+00  3.4599160086E-02  3.3907230458E-02  3.7745196362E-01
  6.2850000000E+03  2.2641082221E+00  6.7679756543E+00  3.4679361861E-02  3.3984679505E-02  3.7766486526E-01
  6.2900000000E+03  2.2662458064E+00  6.7657803112E+00  3.4759684660E-02  3.4062240695E-02  3.7787765704E-01
  6.2950000000E+03  2.2683837079E+00  6.7635874238E+00  3.4840128567E-02  3.4139914089E-02  3.7809033929E-01
  6.3000000000E+03  2.2705219264E+00  6.7613969874E+00  3.4920693667E-02  3.4217699750E-02  3.7830291235E-01
  6.3050000000E+03  2.2726604617E+00  6.7592089973E+00  3.5001380044E-02  3.4295597740E-02  3.7851537654E-01
  6.3100000000E+03  2.2747992905E+00  6.7570234488E+00  3.5082187781E-02  3.4373608114E-02  3.7872773221E-01
  6.3150000000E+03  2.2769381903E+00  6.7548403373E+00  3.5163116962E-02  3.4451730885E-02  3.7893997969E-01
  6.3200000000E+03  2.2790774060E+00  6.7526596581E+00  3.5244167673E-02  3.4529966169E-02  3.7915211930E-01
  6.3250000000E+03  2.2812169374E+00  6.7504814066E+00  3.5325339996E-02  3.4608314028E-02  3.7936415138E-01
  6.3300000000E+03  2.2833567842E+00  6.7483055781E+00  3.5406634016E-02  3.4686774525E-02  3.7957607627E-01
  6.3350000000E+03  2.2854969464E+00  6.7461321682E+00  3.5488049817E-02  3.4765347719E-02  3.7978789428E-01
  6.3400000000E+03  2.2876374236E+00  6.7439611721E+00  3.5569587483E-02  3.4844033674E-02  3.7999960575E-01
  6.3450000000E+03  2.2897782157E+00  6.7417925853E+00  3.5651247098E-02  3.4922832450E-02  3.8021121102E-01
  6.3500000000E+03  2.2919193225E+00  6.7396264033E+00  3.5733028746E-02  3.5001744108E-02  3.8042271039E-01
