#[MATERIAL DEFINITION FOR MC-GPU: interaction mean free path and sampling data from PENELOPE 2018]
#[MATERIAL NAME]
# spine_lumbar                                                  
#[NOMINAL DENSITY (g/cm^3)]
#   1.17100000
#[NUMBER OF DATA VALUES]
#  23002
#[MEAN FREE PATHS (cm) (ie, average distance between interactions)]
#[Energy (eV)     | Rayleigh        | Compton         | Photoelectric   | TOTAL (+pair prod) (cm) | Rayleigh: max cumul prob F^2]
  5.0000000000E+03  1.4789473161E+00  7.2362431736E+00  1.2177661573E-02  1.2058083046E-02  3.0360549164E-01
  5.0050000000E+03  1.4804324551E+00  7.2323249043E+00  1.2211824890E-02  1.2091666028E-02  3.0385919681E-01
  5.0100000000E+03  1.4819176002E+00  7.2284126659E+00  1.2246049219E-02  1.2125307766E-02  3.0411269725E-01
  5.0150000000E+03  1.4834020737E+00  7.2245064431E+00  1.2280334608E-02  1.2159008254E-02  3.0436599342E-01
  5.0200000000E+03  1.4848861477E+00  7.2206062206E+00  1.2314681104E-02  1.2192767551E-02  3.0461908578E-01
  5.0250000000E+03  1.4863702267E+00  7.2167119834E+00  1.2349088751E-02  1.2226585723E-02  3.0487197478E-01
  5.0300000000E+03  1.4878543109E+00  7.2128237161E+00  1.2383557597E-02  1.2260462809E-02  3.0512466090E-01
  5.0350000000E+03  1.4893384001E+00  7.2089414039E+00  1.2418087688E-02  1.2294398849E-02  3.0537714459E-01
  5.0400000000E+03  1.4908224944E+00  7.2050650316E+00  1.2452679069E-02  1.2328393883E-02  3.0562942630E-01
  5.0450000000E+03  1.4923065938E+00  7.2011945844E+00  1.2487331789E-02  1.2362447950E-02  3.0588150649E-01
  5.0500000000E+03  1.4937906983E+00  7.1973300472E+00  1.2522045891E-02  1.2396561089E-02  3.0613338562E-01
  5.0550000000E+03  1.4952748079E+00  7.1934714052E+00  1.2556821424E-02  1.2430733341E-02  3.0638506414E-01
  5.0600000000E+03  1.4967701455E+00  7.1896186436E+00  1.2591658432E-02  1.2464965522E-02  3.0663654250E-01
  5.0650000000E+03  1.4982863531E+00  7.1857717477E+00  1.2626556963E-02  1.2499258351E-02  3.0688782116E-01
  5.0700000000E+03  1.4998025983E+00  7.1819307027E+00  1.2661517062E-02  1.2533610429E-02  3.0713890056E-01
  5.0750000000E+03  1.5013188810E+00  7.1780954940E+00  1.2696538775E-02  1.2568021795E-02  3.0738978115E-01
  5.0800000000E+03  1.5028352013E+00  7.1742661070E+00  1.2731622149E-02  1.2602492487E-02  3.0764046338E-01
  5.0850000000E+03  1.5043515591E+00  7.1705027485E+00  1.2766767230E-02  1.2637022732E-02  3.0789094770E-01
  5.0900000000E+03  1.5058679544E+00  7.1667508993E+00  1.2801974064E-02  1.2671612404E-02  3.0814123455E-01
  5.0950000000E+03  1.5073843871E+00  7.1630046941E+00  1.2837242697E-02  1.2706261523E-02  3.0839132437E-01
  5.1000000000E+03  1.5089008572E+00  7.1592641187E+00  1.2872573175E-02  1.2740970128E-02  3.0864121761E-01
  5.1050000000E+03  1.5104173646E+00  7.1555291593E+00  1.2907965544E-02  1.2775738259E-02  3.0889091471E-01
  5.1100000000E+03  1.5119390415E+00  7.1517998019E+00  1.2943419851E-02  1.2810566323E-02  3.0914041610E-01
  5.1150000000E+03  1.5134608129E+00  7.1480760326E+00  1.2978936141E-02  1.2845453999E-02  3.0938972224E-01
  5.1200000000E+03  1.5149826268E+00  7.1443578376E+00  1.3014514460E-02  1.2880401321E-02  3.0963883355E-01
  5.1250000000E+03  1.5165044833E+00  7.1406452031E+00  1.3050154855E-02  1.2915408328E-02  3.0988775048E-01
  5.1300000000E+03  1.5180263824E+00  7.1369381155E+00  1.3085857371E-02  1.2950475060E-02  3.1013647346E-01
  5.1350000000E+03  1.5195483238E+00  7.1332365609E+00  1.3121622055E-02  1.2985601556E-02  3.1038500292E-01
  5.1400000000E+03  1.5210703077E+00  7.1295405259E+00  1.3157448952E-02  1.3020787855E-02  3.1063333924E-01
  5.1450000000E+03  1.5225923340E+00  7.1258499967E+00  1.3193338108E-02  1.3056033996E-02  3.1088148267E-01
  5.1500000000E+03  1.5241144027E+00  7.1221649600E+00  1.3229289570E-02  1.3091340018E-02  3.1112943367E-01
  5.1550000000E+03  1.5256387519E+00  7.1184854020E+00  1.3265303383E-02  1.3126706126E-02  3.1137719270E-01
  5.1600000000E+03  1.5271650380E+00  7.1148113095E+00  1.3301379593E-02  1.3162132335E-02  3.1162476023E-01
  5.1650000000E+03  1.5286913706E+00  7.1111780420E+00  1.3337518247E-02  1.3197618666E-02  3.1187213673E-01
  5.1700000000E+03  1.5302177496E+00  7.1075786052E+00  1.3373719390E-02  1.3233165136E-02  3.1211932267E-01
  5.1750000000E+03  1.5317441750E+00  7.1039844672E+00  1.3409983067E-02  1.3268771687E-02  3.1236631851E-01
  5.1800000000E+03  1.5332706468E+00  7.1003956149E+00  1.3446309326E-02  1.3304438358E-02  3.1261312470E-01
  5.1850000000E+03  1.5347971648E+00  7.0968120354E+00  1.3482698211E-02  1.3340165187E-02  3.1285974173E-01
  5.1900000000E+03  1.5363237291E+00  7.0932337161E+00  1.3519149769E-02  1.3375952214E-02  3.1310617004E-01
  5.1950000000E+03  1.5378503396E+00  7.0896606441E+00  1.3555664045E-02  1.3411799476E-02  3.1335241009E-01
  5.2000000000E+03  1.5393770029E+00  7.0860928066E+00  1.3592241086E-02  1.3447707015E-02  3.1359846235E-01
  5.2050000000E+03  1.5409045395E+00  7.0825301910E+00  1.3628880937E-02  1.3483674930E-02  3.1384432727E-01
  5.2100000000E+03  1.5424321230E+00  7.0789727847E+00  1.3665583643E-02  1.3519703198E-02  3.1409000530E-01
  5.2150000000E+03  1.5439597533E+00  7.0754205749E+00  1.3702349251E-02  1.3555791858E-02  3.1433549690E-01
  5.2200000000E+03  1.5454874305E+00  7.0718735492E+00  1.3739177807E-02  1.3591940948E-02  3.1458080253E-01
  5.2250000000E+03  1.5470151545E+00  7.0683316951E+00  1.3776069356E-02  1.3628150507E-02  3.1482592262E-01
  5.2300000000E+03  1.5485429253E+00  7.0647950000E+00  1.3813023944E-02  1.3664420574E-02  3.1507085765E-01
  5.2350000000E+03  1.5500707428E+00  7.0612634515E+00  1.3850041617E-02  1.3700751187E-02  3.1531560805E-01
  5.2400000000E+03  1.5515986070E+00  7.0577370373E+00  1.3887122420E-02  1.3737142385E-02  3.1556017427E-01
  5.2450000000E+03  1.5531265178E+00  7.0542157450E+00  1.3924308773E-02  1.3773635668E-02  3.1580455676E-01
  5.2500000000E+03  1.5546552794E+00  7.0507571150E+00  1.3961737300E-02  1.3810364988E-02  3.1604875596E-01
  5.2550000000E+03  1.5561853684E+00  7.0473076060E+00  1.3999230153E-02  1.3847156144E-02  3.1629277232E-01
  5.2600000000E+03  1.5577155061E+00  7.0438630627E+00  1.4036787378E-02  1.3884009060E-02  3.1653660628E-01
  5.2650000000E+03  1.5592456923E+00  7.0404234734E+00  1.4074409023E-02  1.3920923778E-02  3.1678025829E-01
  5.2700000000E+03  1.5607759270E+00  7.0369888262E+00  1.4112095137E-02  1.3957900337E-02  3.1702372878E-01
  5.2750000000E+03  1.5623062102E+00  7.0335591094E+00  1.4149845767E-02  1.3994938778E-02  3.1726701819E-01
  5.2800000000E+03  1.5638365418E+00  7.0301343111E+00  1.4187660960E-02  1.4032039142E-02  3.1751012696E-01
  5.2850000000E+03  1.5653669218E+00  7.0267144198E+00  1.4225540766E-02  1.4069201468E-02  3.1775305553E-01
  5.2900000000E+03  1.5668973502E+00  7.0232994236E+00  1.4263485230E-02  1.4106425796E-02  3.1799580434E-01
  5.2950000000E+03  1.5684278269E+00  7.0198893111E+00  1.4301494402E-02  1.4143712168E-02  3.1823837381E-01
  5.3000000000E+03  1.5699735409E+00  7.0164840706E+00  1.4339568329E-02  1.4181061863E-02  3.1848076439E-01
  5.3050000000E+03  1.5715266691E+00  7.0130836905E+00  1.4377707058E-02  1.4218474292E-02  3.1872297650E-01
  5.3100000000E+03  1.5730798684E+00  7.0096881595E+00  1.4415910638E-02  1.4255948899E-02  3.1896501058E-01
  5.3150000000E+03  1.5746331388E+00  7.0062974659E+00  1.4454179116E-02  1.4293485725E-02  3.1920686705E-01
  5.3200000000E+03  1.5761864802E+00  7.0029115983E+00  1.4492512539E-02  1.4331084809E-02  3.1944854635E-01
  5.3250000000E+03  1.5777398926E+00  6.9995305455E+00  1.4530910956E-02  1.4368746191E-02  3.1969004890E-01
  5.3300000000E+03  1.5792933759E+00  6.9961569424E+00  1.4569374415E-02  1.4406469923E-02  3.1993137512E-01
  5.3350000000E+03  1.5808469300E+00  6.9928450955E+00  1.4607902962E-02  1.4444256277E-02  3.2017252545E-01
  5.3400000000E+03  1.5824005549E+00  6.9895379166E+00  1.4646496645E-02  1.4482105052E-02  3.2041350031E-01
  5.3450000000E+03  1.5839542504E+00  6.9862353948E+00  1.4685155513E-02  1.4520016290E-02  3.2065430012E-01
  5.3500000000E+03  1.5855141462E+00  6.9829375191E+00  1.4723879612E-02  1.4557990545E-02  3.2089492530E-01
  5.3550000000E+03  1.5870750190E+00  6.9796442787E+00  1.4762668991E-02  1.4596027422E-02  3.2113537628E-01
  5.3600000000E+03  1.5886359695E+00  6.9763556628E+00  1.4801523696E-02  1.4634126886E-02  3.2137565347E-01
  5.3650000000E+03  1.5901969977E+00  6.9730716604E+00  1.4840443777E-02  1.4672288975E-02  3.2161575729E-01
  5.3700000000E+03  1.5917581036E+00  6.9697922610E+00  1.4879429279E-02  1.4710513731E-02  3.2185568816E-01
  5.3750000000E+03  1.5933192869E+00  6.9665174538E+00  1.4918480251E-02  1.4748801193E-02  3.2209544650E-01
  5.3800000000E+03  1.5948805478E+00  6.9632472279E+00  1.4957596740E-02  1.4787151401E-02  3.2233503272E-01
  5.3850000000E+03  1.5964418860E+00  6.9599815729E+00  1.4996778794E-02  1.4825564394E-02  3.2257444724E-01
  5.3900000000E+03  1.5980033016E+00  6.9567204781E+00  1.5036026460E-02  1.4864040214E-02  3.2281369047E-01
  5.3950000000E+03  1.5995647944E+00  6.9534639329E+00  1.5075339786E-02  1.4902578899E-02  3.2305276281E-01
  5.4000000000E+03  1.6011259127E+00  6.9502119267E+00  1.5114718820E-02  1.4941180450E-02  3.2329166469E-01
  5.4050000000E+03  1.6026870974E+00  6.9469644490E+00  1.5154163608E-02  1.4979844944E-02  3.2353039652E-01
  5.4100000000E+03  1.6042483587E+00  6.9437214894E+00  1.5193674199E-02  1.5018572424E-02  3.2376895869E-01
  5.4150000000E+03  1.6058096965E+00  6.9404830373E+00  1.5233250639E-02  1.5057362928E-02  3.2400735163E-01
  5.4200000000E+03  1.6073711108E+00  6.9373000152E+00  1.5272892977E-02  1.5096216737E-02  3.2424557573E-01
  5.4250000000E+03  1.6089326015E+00  6.9341280686E+00  1.5312601259E-02  1.5135133684E-02  3.2448363140E-01
  5.4300000000E+03  1.6104941685E+00  6.9309604924E+00  1.5352375533E-02  1.5174113777E-02  3.2472151905E-01
  5.4350000000E+03  1.6120558118E+00  6.9277972766E+00  1.5392215848E-02  1.5213157056E-02  3.2495923908E-01
  5.4400000000E+03  1.6136175312E+00  6.9246384111E+00  1.5432122249E-02  1.5252263561E-02  3.2519679189E-01
  5.4450000000E+03  1.6151793268E+00  6.9214838861E+00  1.5472094784E-02  1.5291433330E-02  3.2543417789E-01
  5.4500000000E+03  1.6167793108E+00  6.9183336915E+00  1.5512133501E-02  1.5330669831E-02  3.2567139747E-01
  5.4550000000E+03  1.6183796404E+00  6.9151878175E+00  1.5552238448E-02  1.5369969722E-02  3.2590845104E-01
  5.4600000000E+03  1.6199800858E+00  6.9120462541E+00  1.5592409671E-02  1.5409333022E-02  3.2614533899E-01
  5.4650000000E+03  1.6215806468E+00  6.9089089915E+00  1.5632647217E-02  1.5448759771E-02  3.2638206172E-01
  5.4700000000E+03  1.6231813233E+00  6.9057760200E+00  1.5672951135E-02  1.5488250008E-02  3.2661861964E-01
  5.4750000000E+03  1.6247821152E+00  6.9026473297E+00  1.5713321472E-02  1.5527803773E-02  3.2685501312E-01
  5.4800000000E+03  1.6263830224E+00  6.8995229108E+00  1.5753758274E-02  1.5567421105E-02  3.2709124258E-01
  5.4850000000E+03  1.6279840448E+00  6.8964027538E+00  1.5794261590E-02  1.5607102044E-02  3.2732730839E-01
  5.4900000000E+03  1.6295851823E+00  6.8932868487E+00  1.5834831466E-02  1.5646846629E-02  3.2756321097E-01
  5.4950000000E+03  1.6311864348E+00  6.8901751861E+00  1.5875467950E-02  1.5686654899E-02  3.2779895068E-01
  5.5000000000E+03  1.6327892372E+00  6.8870677563E+00  1.5916171089E-02  1.5726527028E-02  3.2803452794E-01
  5.5050000000E+03  1.6343922843E+00  6.8839894301E+00  1.5957123650E-02  1.5766641449E-02  3.2826994312E-01
  5.5100000000E+03  1.6359954477E+00  6.8809459979E+00  1.5998143718E-02  1.5806820562E-02  3.2850519662E-01
  5.5150000000E+03  1.6375987273E+00  6.8779066698E+00  1.6039231341E-02  1.5847064245E-02  3.2874028882E-01
  5.5200000000E+03  1.6392021232E+00  6.8748714367E+00  1.6080386568E-02  1.5887372540E-02  3.2897522012E-01
  5.5250000000E+03  1.6408056351E+00  6.8718402893E+00  1.6121609446E-02  1.5927745487E-02  3.2920999089E-01
  5.5300000000E+03  1.6424092630E+00  6.8688132183E+00  1.6162900024E-02  1.5968183126E-02  3.2944460152E-01
  5.5350000000E+03  1.6440130068E+00  6.8657902148E+00  1.6204258351E-02  1.6008685498E-02  3.2967905240E-01
  5.5400000000E+03  1.6456168664E+00  6.8627712694E+00  1.6245684475E-02  1.6049252643E-02  3.2991334390E-01
  5.5450000000E+03  1.6472208417E+00  6.8597563731E+00  1.6287178445E-02  1.6089884602E-02  3.3014747642E-01
  5.5500000000E+03  1.6488341602E+00  6.8567455169E+00  1.6328740309E-02  1.6130582296E-02  3.3038145033E-01
  5.5550000000E+03  1.6504507142E+00  6.8537386917E+00  1.6370370115E-02  1.6171345190E-02  3.3061526601E-01
  5.5600000000E+03  1.6520673967E+00  6.8507358884E+00  1.6412067912E-02  1.6212173027E-02  3.3084892385E-01
  5.5650000000E+03  1.6536842074E+00  6.8477370981E+00  1.6453833748E-02  1.6253065846E-02  3.3108242421E-01
  5.5700000000E+03  1.6553011463E+00  6.8447423119E+00  1.6495667672E-02  1.6294023688E-02  3.3131576748E-01
  5.5750000000E+03  1.6569182132E+00  6.8417515207E+00  1.6537569731E-02  1.6335046593E-02  3.3154895404E-01
  5.5800000000E+03  1.6585354081E+00  6.8387647157E+00  1.6579539975E-02  1.6376134601E-02  3.3178198426E-01
  5.5850000000E+03  1.6601527309E+00  6.8357818880E+00  1.6621578452E-02  1.6417287753E-02  3.3201485852E-01
  5.5900000000E+03  1.6617701814E+00  6.8328030288E+00  1.6663685210E-02  1.6458506088E-02  3.3224757718E-01
  5.5950000000E+03  1.6633877595E+00  6.8298671004E+00  1.6705860296E-02  1.6499789874E-02  3.3248014063E-01
  5.6000000000E+03  1.6650126597E+00  6.8269494688E+00  1.6748103761E-02  1.6541139721E-02  3.3271254923E-01
  5.6050000000E+03  1.6666453693E+00  6.8240356857E+00  1.6790415651E-02  1.6582555639E-02  3.3294480336E-01
  5.6100000000E+03  1.6682782219E+00  6.8211257427E+00  1.6832796016E-02  1.6624036914E-02  3.3317690339E-01
  5.6150000000E+03  1.6699112175E+00  6.8182196313E+00  1.6875244903E-02  1.6665583587E-02  3.3340884968E-01
  5.6200000000E+03  1.6715443559E+00  6.8153173431E+00  1.6917762360E-02  1.6707195696E-02  3.3364064261E-01
  5.6250000000E+03  1.6731776370E+00  6.8124188696E+00  1.6960348437E-02  1.6748873283E-02  3.3387228254E-01
  5.6300000000E+03  1.6748110608E+00  6.8095242024E+00  1.7003003181E-02  1.6790616387E-02  3.3410376991E-01
  5.6350000000E+03  1.6764446270E+00  6.8066333331E+00  1.7045726640E-02  1.6832425047E-02  3.3433510539E-01
  5.6400000000E+03  1.6780783356E+00  6.8037462534E+00  1.7088518863E-02  1.6874299305E-02  3.3456628941E-01
  5.6450000000E+03  1.6797121865E+00  6.8008629551E+00  1.7131379897E-02  1.6916239199E-02  3.3479732239E-01
  5.6500000000E+03  1.6813461514E+00  6.7979834297E+00  1.7174309792E-02  1.6958244767E-02  3.3502820472E-01
  5.6550000000E+03  1.6829800632E+00  6.7951076690E+00  1.7217308595E-02  1.7000316031E-02  3.3525893680E-01
  5.6600000000E+03  1.6846141167E+00  6.7922356648E+00  1.7260376354E-02  1.7042453051E-02  3.3548951903E-01
  5.6650000000E+03  1.6862483117E+00  6.7893674088E+00  1.7303513118E-02  1.7084655867E-02  3.3571995179E-01
  5.6700000000E+03  1.6878826482E+00  6.7865028930E+00  1.7346718935E-02  1.7126924518E-02  3.3595023549E-01
  5.6750000000E+03  1.6895171261E+00  6.7836421090E+00  1.7389993853E-02  1.7169259044E-02  3.3618037053E-01
  5.6800000000E+03  1.6911517452E+00  6.7807850487E+00  1.7433337919E-02  1.7211659485E-02  3.3641035728E-01
  5.6850000000E+03  1.6927865054E+00  6.7779689333E+00  1.7476751183E-02  1.7254126121E-02  3.3664019616E-01
  5.6900000000E+03  1.6944214066E+00  6.7751704162E+00  1.7520233692E-02  1.7296658845E-02  3.3686988754E-01
  5.6950000000E+03  1.6960564487E+00  6.7723755112E+00  1.7563785494E-02  1.7339257605E-02  3.3709943182E-01
  5.7000000000E+03  1.6976916317E+00  6.7695842103E+00  1.7607406638E-02  1.7381922442E-02  3.3732882938E-01
  5.7050000000E+03  1.6993270312E+00  6.7667965058E+00  1.7651097171E-02  1.7424653403E-02  3.3755808062E-01
  5.7100000000E+03  1.7009626084E+00  6.7640123899E+00  1.7694857141E-02  1.7467450523E-02  3.3778718592E-01
  5.7150000000E+03  1.7025983261E+00  6.7612318549E+00  1.7738686598E-02  1.7510313837E-02  3.3801614566E-01
  5.7200000000E+03  1.7042341844E+00  6.7584548930E+00  1.7782585587E-02  1.7553243387E-02  3.3824496024E-01
  5.7250000000E+03  1.7058701830E+00  6.7556814965E+00  1.7826554159E-02  1.7596239210E-02  3.3847363004E-01
  5.7300000000E+03  1.7075063218E+00  6.7529116577E+00  1.7870592360E-02  1.7639301347E-02  3.3870215543E-01
  5.7350000000E+03  1.7091426007E+00  6.7501453689E+00  1.7914700239E-02  1.7682429836E-02  3.3893053681E-01
  5.7400000000E+03  1.7107790197E+00  6.7473826226E+00  1.7958877844E-02  1.7725624718E-02  3.3915877455E-01
  5.7450000000E+03  1.7124155786E+00  6.7446234111E+00  1.8003125222E-02  1.7768886030E-02  3.3938686904E-01
  5.7500000000E+03  1.7140522773E+00  6.7418677269E+00  1.8047442422E-02  1.7812213814E-02  3.3961482064E-01
  5.7550000000E+03  1.7156895991E+00  6.7391155622E+00  1.8091829492E-02  1.7855608160E-02  3.3984262975E-01
  5.7600000000E+03  1.7173306071E+00  6.7363669097E+00  1.8136286479E-02  1.7899069440E-02  3.4007029674E-01
  5.7650000000E+03  1.7189717589E+00  6.7336217617E+00  1.8180813432E-02  1.7942597312E-02  3.4029782198E-01
  5.7700000000E+03  1.7206130542E+00  6.7308801108E+00  1.8225410398E-02  1.7986191815E-02  3.4052520586E-01
  5.7750000000E+03  1.7222544929E+00  6.7281632894E+00  1.8270077426E-02  1.8029853141E-02  3.4075244874E-01
  5.7800000000E+03  1.7238960750E+00  6.7254776368E+00  1.8314814563E-02  1.8073581378E-02  3.4097955100E-01
  5.7850000000E+03  1.7255378003E+00  6.7227953771E+00  1.8359621857E-02  1.8117376366E-02  3.4120651301E-01
  5.7900000000E+03  1.7271796687E+00  6.7201165031E+00  1.8404499356E-02  1.8161238146E-02  3.4143333514E-01
  5.7950000000E+03  1.7288216801E+00  6.7174410075E+00  1.8449447108E-02  1.8205166755E-02  3.4166001777E-01
  5.8000000000E+03  1.7304638344E+00  6.7147688832E+00  1.8494465161E-02  1.8249162232E-02  3.4188656127E-01
  5.8050000000E+03  1.7321061314E+00  6.7121001230E+00  1.8539553563E-02  1.8293224618E-02  3.4211296600E-01
  5.8100000000E+03  1.7337488216E+00  6.7094347198E+00  1.8584712361E-02  1.8337353979E-02  3.4233923233E-01
  5.8150000000E+03  1.7353919350E+00  6.7067726666E+00  1.8629941604E-02  1.8381550358E-02  3.4256536063E-01
  5.8200000000E+03  1.7370351913E+00  6.7041139561E+00  1.8675241339E-02  1.8425813761E-02  3.4279135127E-01
  5.8250000000E+03  1.7386785905E+00  6.7014585814E+00  1.8720611614E-02  1.8470144229E-02  3.4301720462E-01
  5.8300000000E+03  1.7403221325E+00  6.6988065354E+00  1.8766052477E-02  1.8514541801E-02  3.4324292103E-01
  5.8350000000E+03  1.7419658171E+00  6.6961578110E+00  1.8811563975E-02  1.8559006514E-02  3.4346850087E-01
  5.8400000000E+03  1.7436096443E+00  6.6935124014E+00  1.8857146157E-02  1.8603538408E-02  3.4369394450E-01
  5.8450000000E+03  1.7452536139E+00  6.6908702994E+00  1.8902799070E-02  1.8648137522E-02  3.4391925229E-01
  5.8500000000E+03  1.7468977259E+00  6.6882314982E+00  1.8948522762E-02  1.8692803895E-02  3.4414442460E-01
  5.8550000000E+03  1.7485419801E+00  6.6855959908E+00  1.8994317281E-02  1.8737537565E-02  3.4436946179E-01
  5.8600000000E+03  1.7501863764E+00  6.6829637703E+00  1.9040182674E-02  1.8782338571E-02  3.4459436422E-01
  5.8650000000E+03  1.7518302730E+00  6.6803348298E+00  1.9086118989E-02  1.8827206878E-02  3.4481913224E-01
  5.8700000000E+03  1.7534740661E+00  6.6777490301E+00  1.9132126274E-02  1.8872142888E-02  3.4504376622E-01
  5.8750000000E+03  1.7551180001E+00  6.6751735820E+00  1.9178204577E-02  1.8917146410E-02  3.4526826651E-01
  5.8800000000E+03  1.7567620749E+00  6.6726013168E+00  1.9224353945E-02  1.8962217426E-02  3.4549263346E-01
  5.8850000000E+03  1.7584062903E+00  6.6700322280E+00  1.9270574426E-02  1.9007355974E-02  3.4571686745E-01
  5.8900000000E+03  1.7600506463E+00  6.6674663088E+00  1.9316866068E-02  1.9052562093E-02  3.4594096881E-01
  5.8950000000E+03  1.7616951428E+00  6.6649035528E+00  1.9363228918E-02  1.9097835822E-02  3.4616493790E-01
  5.9000000000E+03  1.7633397795E+00  6.6623439533E+00  1.9409663024E-02  1.9143177199E-02  3.4638877507E-01
  5.9050000000E+03  1.7649845566E+00  6.6597875038E+00  1.9456168434E-02  1.9188586263E-02  3.4661248069E-01
  5.9100000000E+03  1.7666294737E+00  6.6572341977E+00  1.9502745195E-02  1.9234063052E-02  3.4683605509E-01
  5.9150000000E+03  1.7682745309E+00  6.6546840285E+00  1.9549393355E-02  1.9279607604E-02  3.4705949864E-01
  5.9200000000E+03  1.7699210409E+00  6.6521369898E+00  1.9596112962E-02  1.9325220115E-02  3.4728281167E-01
  5.9250000000E+03  1.7715678779E+00  6.6495930749E+00  1.9642904062E-02  1.9370900490E-02  3.4750599454E-01
  5.9300000000E+03  1.7732148562E+00  6.6470522776E+00  1.9689766704E-02  1.9416648745E-02  3.4772904760E-01
  5.9350000000E+03  1.7748619756E+00  6.6445145913E+00  1.9736700936E-02  1.9462464919E-02  3.4795197119E-01
  5.9400000000E+03  1.7765092360E+00  6.6419800096E+00  1.9783706804E-02  1.9508349049E-02  3.4817476566E-01
  5.9450000000E+03  1.7781566373E+00  6.6394485261E+00  1.9830784357E-02  1.9554301175E-02  3.4839743136E-01
  5.9500000000E+03  1.7798041794E+00  6.6369201344E+00  1.9877933642E-02  1.9600321334E-02  3.4861996863E-01
  5.9550000000E+03  1.7814518622E+00  6.6343948281E+00  1.9925154706E-02  1.9646409565E-02  3.4884237782E-01
  5.9600000000E+03  1.7830996856E+00  6.6318726010E+00  1.9972447598E-02  1.9692565906E-02  3.4906465926E-01
  5.9650000000E+03  1.7847476494E+00  6.6293967682E+00  2.0019812364E-02  1.9738790780E-02  3.4928681331E-01
  5.9700000000E+03  1.7863957537E+00  6.6269256585E+00  2.0067249052E-02  1.9785083859E-02  3.4950884030E-01
  5.9750000000E+03  1.7880652127E+00  6.6244575374E+00  2.0114757710E-02  1.9831447775E-02  3.4973074058E-01
  5.9800000000E+03  1.7897364311E+00  6.6219923989E+00  2.0162338384E-02  1.9877880173E-02  3.4995251449E-01
  5.9850000000E+03  1.7914078129E+00  6.6195302369E+00  2.0209991124E-02  1.9924380894E-02  3.5017416236E-01
  5.9900000000E+03  1.7930793578E+00  6.6170710453E+00  2.0257715975E-02  1.9970949977E-02  3.5039568453E-01
  5.9950000000E+03  1.7947510657E+00  6.6146148181E+00  2.0305512986E-02  2.0017587459E-02  3.5061708135E-01
  6.0000000000E+03  1.7964229366E+00  6.6121615492E+00  2.0353382204E-02  2.0064293380E-02  3.5083835315E-01
  6.0050000000E+03  1.7980949703E+00  6.6097112325E+00  2.0401770465E-02  2.0111501942E-02  3.5105950027E-01
  6.0100000000E+03  1.7997671667E+00  6.6072638622E+00  2.0450232796E-02  2.0158780694E-02  3.5128052305E-01
  6.0150000000E+03  1.8014395256E+00  6.6048194321E+00  2.0498769248E-02  2.0206129677E-02  3.5150142181E-01
  6.0200000000E+03  1.8031120471E+00  6.6023779363E+00  2.0547379870E-02  2.0253548931E-02  3.5172219690E-01
  6.0250000000E+03  1.8047847308E+00  6.5999393689E+00  2.0596064714E-02  2.0301038497E-02  3.5194284864E-01
  6.0300000000E+03  1.8064612880E+00  6.5975037240E+00  2.0644823829E-02  2.0348598885E-02  3.5216337738E-01
  6.0350000000E+03  1.8081385174E+00  6.5950709955E+00  2.0693657265E-02  2.0396229734E-02  3.5238378344E-01
  6.0400000000E+03  1.8098159131E+00  6.5926411777E+00  2.0742565074E-02  2.0443931019E-02  3.5260406715E-01
  6.0450000000E+03  1.8114934750E+00  6.5902142645E+00  2.0791547305E-02  2.0491702782E-02  3.5282422886E-01
  6.0500000000E+03  1.8131712030E+00  6.5877902502E+00  2.0840604008E-02  2.0539545061E-02  3.5304426888E-01
  6.0550000000E+03  1.8148490969E+00  6.5853691289E+00  2.0889735234E-02  2.0587457899E-02  3.5326418755E-01
  6.0600000000E+03  1.8165271566E+00  6.5829841791E+00  2.0938941033E-02  2.0635441661E-02  3.5348398519E-01
  6.0650000000E+03  1.8182053820E+00  6.5806119109E+00  2.0988221455E-02  2.0683496162E-02  3.5370366214E-01
  6.0700000000E+03  1.8198837730E+00  6.5782424514E+00  2.1037576551E-02  2.0731621346E-02  3.5392321872E-01
  6.0750000000E+03  1.8215623294E+00  6.5758757950E+00  2.1087006371E-02  2.0779817253E-02  3.5414265526E-01
  6.0800000000E+03  1.8232410512E+00  6.5735119360E+00  2.1136510964E-02  2.0828083922E-02  3.5436197213E-01
  6.0850000000E+03  1.8249413889E+00  6.5711508689E+00  2.1186090382E-02  2.0876424202E-02  3.5458116999E-01
  6.0900000000E+03  1.8266498517E+00  6.5687925881E+00  2.1235744674E-02  2.0924836386E-02  3.5480024927E-01
  6.0950000000E+03  1.8283585100E+00  6.5664370880E+00  2.1285473891E-02  2.0973319479E-02  3.5501921030E-01
  6.1000000000E+03  1.8300673634E+00  6.5640843631E+00  2.1335278082E-02  2.1021873521E-02  3.5523805340E-01
  6.1050000000E+03  1.8317764120E+00  6.5617344077E+00  2.1385157298E-02  2.1070498553E-02  3.5545677890E-01
  6.1100000000E+03  1.8334856554E+00  6.5593872165E+00  2.1435111589E-02  2.1119194615E-02  3.5567538712E-01
  6.1150000000E+03  1.8351950937E+00  6.5570427838E+00  2.1485141005E-02  2.1167961747E-02  3.5589387840E-01
  6.1200000000E+03  1.8369047266E+00  6.5547011042E+00  2.1535245596E-02  2.1216799988E-02  3.5611225306E-01
  6.1250000000E+03  1.8386145540E+00  6.5523621722E+00  2.1585425413E-02  2.1265709380E-02  3.5633051141E-01
  6.1300000000E+03  1.8403245758E+00  6.5500259823E+00  2.1635680505E-02  2.1314689962E-02  3.5654865380E-01
  6.1350000000E+03  1.8420347919E+00  6.5476925291E+00  2.1686010923E-02  2.1363741774E-02  3.5676668053E-01
  6.1400000000E+03  1.8437449474E+00  6.5453618072E+00  2.1736416716E-02  2.1412864822E-02  3.5698459193E-01
  6.1450000000E+03  1.8454550161E+00  6.5430338111E+00  2.1786897936E-02  2.1462059142E-02  3.5720238832E-01
  6.1500000000E+03  1.8471652781E+00  6.5407085355E+00  2.1837454631E-02  2.1511324812E-02  3.5742007003E-01
  6.1550000000E+03  1.8488757333E+00  6.5383972250E+00  2.1888086852E-02  2.1560661994E-02  3.5763763736E-01
  6.1600000000E+03  1.8505863814E+00  6.5361186427E+00  2.1938794649E-02  2.1610070935E-02  3.5785509065E-01
  6.1650000000E+03  1.8522972225E+00  6.5338427022E+00  2.1989578072E-02  2.1659551350E-02  3.5807243021E-01
  6.1700000000E+03  1.8540082563E+00  6.5315693984E+00  2.2040437172E-02  2.1709103278E-02  3.5828965636E-01
  6.1750000000E+03  1.8557194827E+00  6.5292987261E+00  2.2091371997E-02  2.1758726759E-02  3.5850676941E-01
  6.1800000000E+03  1.8574309015E+00  6.5270306800E+00  2.2142382599E-02  2.1808421833E-02  3.5872376969E-01
  6.1850000000E+03  1.8591425127E+00  6.5247652551E+00  2.2193469027E-02  2.1858188540E-02  3.5894065751E-01
  6.1900000000E+03  1.8608543162E+00  6.5225024461E+00  2.2244631331E-02  2.1908026920E-02  3.5915743318E-01
  6.1950000000E+03  1.8625662725E+00  6.5202422480E+00  2.2295869561E-02  2.1957937007E-02  3.5937409701E-01
  6.2000000000E+03  1.8642781278E+00  6.5179846557E+00  2.2347183767E-02  2.2007918805E-02  3.5959064933E-01
  6.2050000000E+03  1.8659901745E+00  6.5157296640E+00  2.2398574000E-02  2.2057972395E-02  3.5980709045E-01
  6.2100000000E+03  1.8677024126E+00  6.5134772678E+00  2.2450040308E-02  2.2108097816E-02  3.6002342067E-01
  6.2150000000E+03  1.8694148419E+00  6.5112274621E+00  2.2501582743E-02  2.2158295108E-02  3.6023964032E-01
  6.2200000000E+03  1.8711274622E+00  6.5089802418E+00  2.2553201353E-02  2.2208564310E-02  3.6045574970E-01
  6.2250000000E+03  1.8728402735E+00  6.5067356019E+00  2.2604896190E-02  2.2258905462E-02  3.6067174912E-01
  6.2300000000E+03  1.8745532756E+00  6.5044935374E+00  2.2656667302E-02  2.2309318604E-02  3.6088763889E-01
  6.2350000000E+03  1.8762664683E+00  6.5022540431E+00  2.2708514740E-02  2.2359803774E-02  3.6110341933E-01
  6.2400000000E+03  1.8779798516E+00  6.5000171142E+00  2.2760438554E-02  2.2410361014E-02  3.6131909074E-01
  6.2450000000E+03  1.8796934253E+00  6.4977827456E+00  2.2812438793E-02  2.2460990361E-02  3.6153465343E-01
  6.2500000000E+03  1.8814071893E+00  6.4955509323E+00  2.2864515508E-02  2.2511691856E-02  3.6175010770E-01
  6.2550000000E+03  1.8831208353E+00  6.4933398199E+00  2.2916668749E-02  2.2562465713E-02  3.6196545387E-01
  6.2600000000E+03  1.8848345079E+00  6.4911525769E+00  2.2968898564E-02  2.2613312033E-02  3.6218069224E-01
  6.2650000000E+03  1.8865483700E+00  6.4889678162E+00  2.3021205005E-02  2.2664230623E-02  3.6239582312E-01
  6.2700000000E+03  1.8882624212E+00  6.4867855329E+00  2.3073588121E-02  2.2715221522E-02  3.6261084681E-01
  6.2750000000E+03  1.8899766617E+00  6.4846057221E+00  2.3126047961E-02  2.2766284769E-02  3.6282576361E-01
  6.2800000000E+03  1.8916910911E+00  6.4824283792E+00  2.3178584577E-02  2.2817420403E-02  3.6304057384E-01
  6.2850000000E+03  1.8934057095E+00  6.4802534994E+00  2.3231198016E-02  2.2868628464E-02  3.6325527779E-01
  6.2900000000E+03  1.8951205165E+00  6.4780810779E+00  2.3283888330E-02  2.2919908992E-02  3.6346987577E-01
  6.2950000000E+03  1.8968355123E+00  6.4759111101E+00  2.3336655568E-02  2.2971262024E-02  3.6368436807E-01
  6.3000000000E+03  1.8985506965E+00  6.4737435911E+00  2.3389499780E-02  2.3022687601E-02  3.6389875501E-01
  6.3050000000E+03  1.9002660690E+00  6.4715785163E+00  2.3442421016E-02  2.3074185761E-02  3.6411303687E-01
  6.3100000000E+03  1.9019815401E+00  6.4694158810E+00  2.3495419325E-02  2.3125756532E-02  3.6432721397E-01
  6.3150000000E+03  1.9036962454E+00  6.4672556805E+00  2.3548494758E-02  2.3177399822E-02  3.6454128660E-01
  6.3200000000E+03  1.9054111376E+00  6.4650979102E+00  2.3601647364E-02  2.3229115812E-02  3.6475525506E-01
  6.3250000000E+03  1.9071262166E+00  6.4629425653E+00  2.3654877192E-02  2.3280904542E-02  3.6496911965E-01
  6.3300000000E+03  1.9088414822E+00  6.4607896413E+00  2.3708184293E-02  2.3332766049E-02  3.6518288067E-01
  6.3350000000E+03  1.9105569344E+00  6.4586391336E+00  2.3761568716E-02  2.3384700374E-02  3.6539653841E-01
  6.3400000000E+03  1.9122725730E+00  6.4564910375E+00  2.3815030511E-02  2.3436707555E-02  3.6561009318E-01
  6.3450000000E+03  1.9139883979E+00  6.4543453483E+00  2.3868569728E-02  2.3488787630E-02  3.6582354526E-01
  6.3500000000E+03  1.9157044090E+00  6.4522020616E+00  2.3922186417E-02  2.3540940640E-02  3.6603689496E-01
