#[MATERIAL DEFINITION FOR MC-GPU: interaction mean free path and sampling data from PENELOPE 2018]
#[MATERIAL NAME]
# femora_upper                                                  
#[NOMINAL DENSITY (g/cm^3)]
#   1.04600000
#[NUMBER OF DATA VALUES]
#  23002
#[MEAN FREE PATHS (cm) (ie, average distance between interactions)]
#[Energy (eV)     | Rayleigh        | Compton         | Photoelectric   | TOTAL (+pair prod) (cm) | Rayleigh: max cumul prob F^2]
  5.0000000000E+03  2.0098410921E+00  7.5976758766E+00  2.3245213866E-02  2.2910148053E-02  3.2374380853E-01
  5.0050000000E+03  2.0120557918E+00  7.5939319252E+00  2.3312766411E-02  2.2976019278E-02  3.2399688975E-01
  5.0100000000E+03  2.0142707169E+00  7.5901935544E+00  2.3380446430E-02  2.3042011144E-02  3.2424975914E-01
  5.0150000000E+03  2.0164869242E+00  7.5864607502E+00  2.3448254030E-02  2.3108123877E-02  3.2450241725E-01
  5.0200000000E+03  2.0187039897E+00  7.5827334988E+00  2.3516189323E-02  2.3174357513E-02  3.2475486466E-01
  5.0250000000E+03  2.0209212821E+00  7.5790117865E+00  2.3584252418E-02  2.3240712056E-02  3.2500710195E-01
  5.0300000000E+03  2.0231388010E+00  7.5752955994E+00  2.3652443424E-02  2.3307187594E-02  3.2525912967E-01
  5.0350000000E+03  2.0253565464E+00  7.5715849240E+00  2.3720762451E-02  2.3373784215E-02  3.2551094840E-01
  5.0400000000E+03  2.0275745180E+00  7.5678797466E+00  2.3789209608E-02  2.3440502007E-02  3.2576255869E-01
  5.0450000000E+03  2.0297927156E+00  7.5641800535E+00  2.3857785006E-02  2.3507341059E-02  3.2601396112E-01
  5.0500000000E+03  2.0320111391E+00  7.5604858313E+00  2.3926488752E-02  2.3574301457E-02  3.2626515624E-01
  5.0550000000E+03  2.0342297881E+00  7.5567970665E+00  2.3995320958E-02  2.3641383290E-02  3.2651614461E-01
  5.0600000000E+03  2.0364550492E+00  7.5531137455E+00  2.4064281732E-02  2.3708587510E-02  3.2676692680E-01
  5.0650000000E+03  2.0386924112E+00  7.5494358551E+00  2.4133371184E-02  2.3775914962E-02  3.2701750334E-01
  5.0700000000E+03  2.0409300202E+00  7.5457633818E+00  2.4202589423E-02  2.3843364131E-02  3.2726787481E-01
  5.0750000000E+03  2.0431678758E+00  7.5420963124E+00  2.4271936558E-02  2.3910935104E-02  3.2751804174E-01
  5.0800000000E+03  2.0454059778E+00  7.5384346335E+00  2.4341412700E-02  2.3978627971E-02  3.2776800470E-01
  5.0850000000E+03  2.0476443261E+00  7.5348384617E+00  2.4411017956E-02  2.4046443429E-02  3.2801776423E-01
  5.0900000000E+03  2.0498829205E+00  7.5312533681E+00  2.4480752438E-02  2.4114381022E-02  3.2826732087E-01
  5.0950000000E+03  2.0521217606E+00  7.5276734978E+00  2.4550616253E-02  2.4182440776E-02  3.2851667518E-01
  5.1000000000E+03  2.0543608464E+00  7.5240988380E+00  2.4620609512E-02  2.4250622779E-02  3.2876582770E-01
  5.1050000000E+03  2.0566001775E+00  7.5205293761E+00  2.4690732323E-02  2.4318927119E-02  3.2901477896E-01
  5.1100000000E+03  2.0588430629E+00  7.5169650994E+00  2.4760984795E-02  2.4387354346E-02  3.2926352952E-01
  5.1150000000E+03  2.0610862307E+00  7.5134059953E+00  2.4831367039E-02  2.4455904092E-02  3.2951207991E-01
  5.1200000000E+03  2.0633296472E+00  7.5098520512E+00  2.4901879162E-02  2.4524576440E-02  3.2976043066E-01
  5.1250000000E+03  2.0655733122E+00  7.5063032548E+00  2.4972521275E-02  2.4593371475E-02  3.3000858231E-01
  5.1300000000E+03  2.0678172256E+00  7.5027595934E+00  2.5043293486E-02  2.4662289285E-02  3.3025653540E-01
  5.1350000000E+03  2.0700613870E+00  7.4992210547E+00  2.5114195905E-02  2.4731329957E-02  3.3050429047E-01
  5.1400000000E+03  2.0723057964E+00  7.4956876263E+00  2.5185228641E-02  2.4800493577E-02  3.3075184803E-01
  5.1450000000E+03  2.0745504534E+00  7.4921592958E+00  2.5256391802E-02  2.4869780231E-02  3.3099920862E-01
  5.1500000000E+03  2.0767953579E+00  7.4886360509E+00  2.5327685498E-02  2.4939190007E-02  3.3124637277E-01
  5.1550000000E+03  2.0790419679E+00  7.4851178795E+00  2.5399109837E-02  2.5008723202E-02  3.3149334100E-01
  5.1600000000E+03  2.0812900598E+00  7.4816047692E+00  2.5470664930E-02  2.5078379872E-02  3.3174011386E-01
  5.1650000000E+03  2.0835384017E+00  7.4781318052E+00  2.5542350884E-02  2.5148160322E-02  3.3198669203E-01
  5.1700000000E+03  2.0857869934E+00  7.4746920536E+00  2.5614167810E-02  2.5218064568E-02  3.3223307606E-01
  5.1750000000E+03  2.0880358347E+00  7.4712572069E+00  2.5686115815E-02  2.5288092378E-02  3.3247926650E-01
  5.1800000000E+03  2.0902849254E+00  7.4678272534E+00  2.5758195008E-02  2.5358243838E-02  3.3272526391E-01
  5.1850000000E+03  2.0925342652E+00  7.4644021815E+00  2.5830405500E-02  2.5428519035E-02  3.3297106883E-01
  5.1900000000E+03  2.0947838540E+00  7.4609819794E+00  2.5902747398E-02  2.5498918054E-02  3.3321668180E-01
  5.1950000000E+03  2.0970336916E+00  7.4575666357E+00  2.5975220811E-02  2.5569440981E-02  3.3346210337E-01
  5.2000000000E+03  2.0992837860E+00  7.4541561386E+00  2.6047825849E-02  2.5640087904E-02  3.3370733407E-01
  5.2050000000E+03  2.1015351518E+00  7.4507504768E+00  2.6120562619E-02  2.5710859060E-02  3.3395237445E-01
  5.2100000000E+03  2.1037867670E+00  7.4473496386E+00  2.6193431232E-02  2.5781754383E-02  3.3419722504E-01
  5.2150000000E+03  2.1060386313E+00  7.4439536127E+00  2.6266431795E-02  2.5852773959E-02  3.3444188638E-01
  5.2200000000E+03  2.1082907446E+00  7.4405623876E+00  2.6339564418E-02  2.5923917873E-02  3.3468635899E-01
  5.2250000000E+03  2.1105431065E+00  7.4371759520E+00  2.6412829209E-02  2.5995186211E-02  3.3493064342E-01
  5.2300000000E+03  2.1127957169E+00  7.4337942946E+00  2.6486226276E-02  2.6066579058E-02  3.3517474019E-01
  5.2350000000E+03  2.1150485756E+00  7.4304174039E+00  2.6559755730E-02  2.6138096501E-02  3.3541864983E-01
  5.2400000000E+03  2.1173016823E+00  7.4270452688E+00  2.6633417678E-02  2.6209738623E-02  3.3566237287E-01
  5.2450000000E+03  2.1195550369E+00  7.4236778780E+00  2.6707261222E-02  2.6281552955E-02  3.3590590983E-01
  5.2500000000E+03  2.1218128614E+00  7.4203719567E+00  2.6781444447E-02  2.6353693908E-02  3.3614926125E-01
  5.2550000000E+03  2.1240776585E+00  7.4170747292E+00  2.6855761809E-02  2.6425962145E-02  3.3639242763E-01
  5.2600000000E+03  2.1263427157E+00  7.4137821006E+00  2.6930213421E-02  2.6498356671E-02  3.3663540950E-01
  5.2650000000E+03  2.1286080327E+00  7.4104940599E+00  2.7004799394E-02  2.6570877573E-02  3.3687820739E-01
  5.2700000000E+03  2.1308736095E+00  7.4072105964E+00  2.7079519840E-02  2.6643524939E-02  3.3712082180E-01
  5.2750000000E+03  2.1331394456E+00  7.4039316995E+00  2.7154374869E-02  2.6716298856E-02  3.3736325325E-01
  5.2800000000E+03  2.1354055410E+00  7.4006573585E+00  2.7229364595E-02  2.6789199413E-02  3.3760550227E-01
  5.2850000000E+03  2.1376718954E+00  7.3973875627E+00  2.7304489129E-02  2.6862226696E-02  3.3784756935E-01
  5.2900000000E+03  2.1399385086E+00  7.3941223015E+00  2.7379748581E-02  2.6935380793E-02  3.3808945502E-01
  5.2950000000E+03  2.1422053804E+00  7.3908615644E+00  2.7455143064E-02  2.7008661792E-02  3.3833115978E-01
  5.3000000000E+03  2.1444811374E+00  7.3876053409E+00  2.7530672690E-02  2.7082071155E-02  3.3857268414E-01
  5.3050000000E+03  2.1467613378E+00  7.3843536204E+00  2.7606337569E-02  2.7155608273E-02  3.3881402860E-01
  5.3100000000E+03  2.1490418112E+00  7.3811063924E+00  2.7682137813E-02  2.7229272571E-02  3.3905519368E-01
  5.3150000000E+03  2.1513225574E+00  7.3778636467E+00  2.7758073534E-02  2.7303064134E-02  3.3929617988E-01
  5.3200000000E+03  2.1536035761E+00  7.3746253726E+00  2.7834144843E-02  2.7376983050E-02  3.3953698769E-01
  5.3250000000E+03  2.1558848671E+00  7.3713915600E+00  2.7910351851E-02  2.7451029407E-02  3.3977761763E-01
  5.3300000000E+03  2.1581664302E+00  7.3681647899E+00  2.7986694671E-02  2.7525203327E-02  3.4001807018E-01
  5.3350000000E+03  2.1604482652E+00  7.3649982425E+00  2.8063173413E-02  2.7599505645E-02  3.4025834585E-01
  5.3400000000E+03  2.1627303718E+00  7.3618360203E+00  2.8139788188E-02  2.7673935672E-02  3.4049844514E-01
  5.3450000000E+03  2.1650127499E+00  7.3586781135E+00  2.8216539109E-02  2.7748493496E-02  3.4073836853E-01
  5.3500000000E+03  2.1672982924E+00  7.3555245121E+00  2.8293426286E-02  2.7823179679E-02  3.4097811652E-01
  5.3550000000E+03  2.1695845342E+00  7.3523752062E+00  2.8370449831E-02  2.7897993907E-02  3.4121768961E-01
  5.3600000000E+03  2.1718710507E+00  7.3492301859E+00  2.8447609855E-02  2.7972936194E-02  3.4145708828E-01
  5.3650000000E+03  2.1741578416E+00  7.3460894415E+00  2.8524906470E-02  2.8048006629E-02  3.4169631303E-01
  5.3700000000E+03  2.1764449066E+00  7.3429529632E+00  2.8602339786E-02  2.8123205297E-02  3.4193536434E-01
  5.3750000000E+03  2.1787322457E+00  7.3398207411E+00  2.8679909915E-02  2.8198532285E-02  3.4217424270E-01
  5.3800000000E+03  2.1810198586E+00  7.3366927656E+00  2.8757616968E-02  2.8273987679E-02  3.4241294859E-01
  5.3850000000E+03  2.1833077450E+00  7.3335690270E+00  2.8835461057E-02  2.8349571565E-02  3.4265148250E-01
  5.3900000000E+03  2.1855959047E+00  7.3304495155E+00  2.8913442292E-02  2.8425284030E-02  3.4288984490E-01
  5.3950000000E+03  2.1878843375E+00  7.3273342217E+00  2.8991560784E-02  2.8501125159E-02  3.4312803629E-01
  5.4000000000E+03  2.1901737047E+00  7.3242231358E+00  2.9069816646E-02  2.8577095152E-02  3.4336605714E-01
  5.4050000000E+03  2.1924633603E+00  7.3211162483E+00  2.9148209987E-02  2.8653193984E-02  3.4360390792E-01
  5.4100000000E+03  2.1947532890E+00  7.3180135496E+00  2.9226740920E-02  2.8729421740E-02  3.4384158913E-01
  5.4150000000E+03  2.1970434908E+00  7.3149150303E+00  2.9305409555E-02  2.8805778505E-02  3.4407910122E-01
  5.4200000000E+03  2.1993339654E+00  7.3118702125E+00  2.9384216003E-02  2.8882265137E-02  3.4431644468E-01
  5.4250000000E+03  2.2016247125E+00  7.3088359670E+00  2.9463160376E-02  2.8958881060E-02  3.4455361997E-01
  5.4300000000E+03  2.2039157320E+00  7.3058057742E+00  2.9542242784E-02  2.9035626258E-02  3.4479062757E-01
  5.4350000000E+03  2.2062070236E+00  7.3027796249E+00  2.9621463338E-02  2.9112500818E-02  3.4502746796E-01
  5.4400000000E+03  2.2084985872E+00  7.2997575100E+00  2.9700822150E-02  2.9189504823E-02  3.4526414159E-01
  5.4450000000E+03  2.2107904224E+00  7.2967394205E+00  2.9780319331E-02  2.9266638361E-02  3.4550064894E-01
  5.4500000000E+03  2.2131314017E+00  7.2937253472E+00  2.9859954991E-02  2.9343910107E-02  3.4573699047E-01
  5.4550000000E+03  2.2154730049E+00  7.2907152811E+00  2.9939729241E-02  2.9421311673E-02  3.4597316665E-01
  5.4600000000E+03  2.2178149370E+00  7.2877092133E+00  3.0019642193E-02  2.9498843093E-02  3.4620917794E-01
  5.4650000000E+03  2.2201571976E+00  7.2847071348E+00  3.0099693957E-02  2.9576504450E-02  3.4644502481E-01
  5.4700000000E+03  2.2224997865E+00  7.2817090367E+00  3.0179884644E-02  2.9654295832E-02  3.4668070771E-01
  5.4750000000E+03  2.2248427035E+00  7.2787149100E+00  3.0260214365E-02  2.9732217323E-02  3.4691622711E-01
  5.4800000000E+03  2.2271859483E+00  7.2757247459E+00  3.0340683231E-02  2.9810269008E-02  3.4715158346E-01
  5.4850000000E+03  2.2295295207E+00  7.2727385355E+00  3.0421291353E-02  2.9888450973E-02  3.4738677722E-01
  5.4900000000E+03  2.2318734203E+00  7.2697562700E+00  3.0502038841E-02  2.9966763303E-02  3.4762180885E-01
  5.4950000000E+03  2.2342176470E+00  7.2667779406E+00  3.0582925807E-02  3.0045206082E-02  3.4785667880E-01
  5.5000000000E+03  2.2365637253E+00  7.2638035385E+00  3.0663952361E-02  3.0123779672E-02  3.4809138753E-01
  5.5050000000E+03  2.2389102683E+00  7.2608571027E+00  3.0745499216E-02  3.0202851611E-02  3.4832593549E-01
  5.5100000000E+03  2.2412571396E+00  7.2579442333E+00  3.0827187534E-02  3.0282056322E-02  3.4856032313E-01
  5.5150000000E+03  2.2436043388E+00  7.2550351730E+00  3.0909017429E-02  3.0361393382E-02  3.4879455091E-01
  5.5200000000E+03  2.2459518659E+00  7.2521299133E+00  3.0990989014E-02  3.0440862876E-02  3.4902861927E-01
  5.5250000000E+03  2.2482997204E+00  7.2492284458E+00  3.1073102402E-02  3.0520464893E-02  3.4926252872E-01
  5.5300000000E+03  2.2506479022E+00  7.2463307622E+00  3.1155357708E-02  3.0600199519E-02  3.4949627972E-01
  5.5350000000E+03  2.2529964110E+00  7.2434368540E+00  3.1237755046E-02  3.0680066841E-02  3.4972987276E-01
  5.5400000000E+03  2.2553452465E+00  7.2405467130E+00  3.1320294528E-02  3.0760066947E-02  3.4996330831E-01
  5.5450000000E+03  2.2576944086E+00  7.2376603308E+00  3.1402976269E-02  3.0840199923E-02  3.5019658685E-01
  5.5500000000E+03  2.2600493061E+00  7.2347776993E+00  3.1485800382E-02  3.0920466869E-02  3.5042970887E-01
  5.5550000000E+03  2.2624063595E+00  7.2318988100E+00  3.1568766981E-02  3.1000867208E-02  3.5066267482E-01
  5.5600000000E+03  2.2647637471E+00  7.2290236550E+00  3.1651876179E-02  3.1081400687E-02  3.5089548519E-01
  5.5650000000E+03  2.2671214689E+00  7.2261522258E+00  3.1735128091E-02  3.1162067393E-02  3.5112814045E-01
  5.5700000000E+03  2.2694795244E+00  7.2232845144E+00  3.1818522828E-02  3.1242867412E-02  3.5136064106E-01
  5.5750000000E+03  2.2718379134E+00  7.2204205127E+00  3.1902060506E-02  3.1323800832E-02  3.5159298750E-01
  5.5800000000E+03  2.2741966357E+00  7.2175602124E+00  3.1985741237E-02  3.1404867737E-02  3.5182518023E-01
  5.5850000000E+03  2.2765556911E+00  7.2147036055E+00  3.2069565136E-02  3.1486068215E-02  3.5205721973E-01
  5.5900000000E+03  2.2789150792E+00  7.2118506840E+00  3.2153532314E-02  3.1567402352E-02  3.5228910644E-01
  5.5950000000E+03  2.2812747999E+00  7.2090390079E+00  3.2237642887E-02  3.1648870958E-02  3.5252084085E-01
  5.6000000000E+03  2.2836390776E+00  7.2062448340E+00  3.2321896968E-02  3.1730474487E-02  3.5275242340E-01
  5.6050000000E+03  2.2860081989E+00  7.2034542354E+00  3.2406294669E-02  3.1812212822E-02  3.5298385457E-01
  5.6100000000E+03  2.2883776623E+00  7.2006672043E+00  3.2490836104E-02  3.1894085183E-02  3.5321513481E-01
  5.6150000000E+03  2.2907474674E+00  7.1978837330E+00  3.2575521388E-02  3.1976091656E-02  3.5344626458E-01
  5.6200000000E+03  2.2931176142E+00  7.1951038137E+00  3.2660350632E-02  3.2058232326E-02  3.5367724434E-01
  5.6250000000E+03  2.2954881022E+00  7.1923274387E+00  3.2745323951E-02  3.2140507279E-02  3.5390807454E-01
  5.6300000000E+03  2.2978589312E+00  7.1895546004E+00  3.2830441457E-02  3.2222916601E-02  3.5413875564E-01
  5.6350000000E+03  2.3002301011E+00  7.1867852912E+00  3.2915703265E-02  3.2305460379E-02  3.5436928810E-01
  5.6400000000E+03  2.3026016114E+00  7.1840195034E+00  3.3001109487E-02  3.2388138696E-02  3.5459967235E-01
  5.6450000000E+03  2.3049734621E+00  7.1812572294E+00  3.3086660237E-02  3.2470951640E-02  3.5482990887E-01
  5.6500000000E+03  2.3073457901E+00  7.1784984617E+00  3.3172355628E-02  3.2553899323E-02  3.5505999809E-01
  5.6550000000E+03  2.3097194109E+00  7.1757431927E+00  3.3258195773E-02  3.2636981992E-02  3.5528994046E-01
  5.6600000000E+03  2.3120933725E+00  7.1729914149E+00  3.3344180786E-02  3.2720199546E-02  3.5551973644E-01
  5.6650000000E+03  2.3144676747E+00  7.1702431207E+00  3.3430310780E-02  3.2803552068E-02  3.5574938647E-01
  5.6700000000E+03  2.3168423171E+00  7.1674983028E+00  3.3516585867E-02  3.2887039645E-02  3.5597889099E-01
  5.6750000000E+03  2.3192172996E+00  7.1647569537E+00  3.3603006162E-02  3.2970662361E-02  3.5620825045E-01
  5.6800000000E+03  2.3215926219E+00  7.1620190659E+00  3.3689571777E-02  3.3054420302E-02  3.5643746529E-01
  5.6850000000E+03  2.3239682838E+00  7.1593204524E+00  3.3776282826E-02  3.3138314319E-02  3.5666653595E-01
  5.6900000000E+03  2.3263442849E+00  7.1566386539E+00  3.3863139421E-02  3.3222344028E-02  3.5689546287E-01
  5.6950000000E+03  2.3287206251E+00  7.1539602141E+00  3.3950141677E-02  3.3306509226E-02  3.5712424650E-01
  5.7000000000E+03  2.3310973040E+00  7.1512851261E+00  3.4037289705E-02  3.3390809999E-02  3.5735288727E-01
  5.7050000000E+03  2.3334740406E+00  7.1486133825E+00  3.4124583619E-02  3.3475246373E-02  3.5758138562E-01
  5.7100000000E+03  2.3358509780E+00  7.1459449764E+00  3.4212023532E-02  3.3559818463E-02  3.5780974198E-01
  5.7150000000E+03  2.3382282529E+00  7.1432799006E+00  3.4299609558E-02  3.3644526380E-02  3.5803795679E-01
  5.7200000000E+03  2.3406058652E+00  7.1406181480E+00  3.4387341808E-02  3.3729370210E-02  3.5826603048E-01
  5.7250000000E+03  2.3429838145E+00  7.1379597117E+00  3.4475220397E-02  3.3814350037E-02  3.5849396349E-01
  5.7300000000E+03  2.3453621006E+00  7.1353045846E+00  3.4563245437E-02  3.3899465945E-02  3.5872175624E-01
  5.7350000000E+03  2.3477407233E+00  7.1326527597E+00  3.4651417042E-02  3.3984718019E-02  3.5894940918E-01
  5.7400000000E+03  2.3501196823E+00  7.1300042300E+00  3.4739735323E-02  3.4070106342E-02  3.5917692271E-01
  5.7450000000E+03  2.3524989775E+00  7.1273589885E+00  3.4828200395E-02  3.4155631000E-02  3.5940429729E-01
  5.7500000000E+03  2.3548786084E+00  7.1247170284E+00  3.4916812370E-02  3.4241292076E-02  3.5963153332E-01
  5.7550000000E+03  2.3572588998E+00  7.1220783427E+00  3.5005571361E-02  3.4327089722E-02  3.5985863125E-01
  5.7600000000E+03  2.3596419104E+00  7.1194429244E+00  3.5094477481E-02  3.4413024462E-02  3.6008559148E-01
  5.7650000000E+03  2.3620252592E+00  7.1168107668E+00  3.5183530843E-02  3.4499095876E-02  3.6031241446E-01
  5.7700000000E+03  2.3644089460E+00  7.1141818630E+00  3.5272731560E-02  3.4585304047E-02  3.6053910059E-01
  5.7750000000E+03  2.3667929705E+00  7.1115766967E+00  3.5362079744E-02  3.4671649548E-02  3.6076565030E-01
  5.7800000000E+03  2.3691773324E+00  7.1090013578E+00  3.5451575509E-02  3.4758132614E-02  3.6099206402E-01
  5.7850000000E+03  2.3715620317E+00  7.1064291771E+00  3.5541218967E-02  3.4844752701E-02  3.6121834216E-01
  5.7900000000E+03  2.3739470679E+00  7.1038601481E+00  3.5631010231E-02  3.4931509890E-02  3.6144448514E-01
  5.7950000000E+03  2.3763324409E+00  7.1012942642E+00  3.5720949414E-02  3.5018404267E-02  3.6167049338E-01
  5.8000000000E+03  2.3787181504E+00  7.0987315188E+00  3.5811036629E-02  3.5105435914E-02  3.6189636730E-01
  5.8050000000E+03  2.3811041961E+00  7.0961719053E+00  3.5901271989E-02  3.5192604915E-02  3.6212210730E-01
  5.8100000000E+03  2.3834906119E+00  7.0936154173E+00  3.5991655605E-02  3.5279911360E-02  3.6234771382E-01
  5.8150000000E+03  2.3858774015E+00  7.0910620483E+00  3.6082187592E-02  3.5367355334E-02  3.6257318725E-01
  5.8200000000E+03  2.3882645267E+00  7.0885117917E+00  3.6172868061E-02  3.5454936911E-02  3.6279852801E-01
  5.8250000000E+03  2.3906519873E+00  7.0859646411E+00  3.6263697125E-02  3.5542656175E-02  3.6302373652E-01
  5.8300000000E+03  2.3930397831E+00  7.0834205901E+00  3.6354674898E-02  3.5630513208E-02  3.6324881319E-01
  5.8350000000E+03  2.3954279137E+00  7.0808796323E+00  3.6445801491E-02  3.5718508093E-02  3.6347375842E-01
  5.8400000000E+03  2.3978163791E+00  7.0783417611E+00  3.6537077018E-02  3.5806640914E-02  3.6369857262E-01
  5.8450000000E+03  2.4002051788E+00  7.0758069703E+00  3.6628501591E-02  3.5894911753E-02  3.6392325620E-01
  5.8500000000E+03  2.4025943127E+00  7.0732752535E+00  3.6720075322E-02  3.5983320693E-02  3.6414780957E-01
  5.8550000000E+03  2.4049837806E+00  7.0707466043E+00  3.6811798324E-02  3.6071867816E-02  3.6437223313E-01
  5.8600000000E+03  2.4073735822E+00  7.0682210163E+00  3.6903670711E-02  3.6160553204E-02  3.6459652729E-01
  5.8650000000E+03  2.4097637282E+00  7.0656984834E+00  3.6995692593E-02  3.6249376944E-02  3.6482069246E-01
  5.8700000000E+03  2.4121542116E+00  7.0632171984E+00  3.7087864085E-02  3.6338340126E-02  3.6504472903E-01
  5.8750000000E+03  2.4145450280E+00  7.0607457475E+00  3.7180185298E-02  3.6427442013E-02  3.6526863741E-01
  5.8800000000E+03  2.4169361772E+00  7.0582772627E+00  3.7272656345E-02  3.6516682508E-02  3.6549241800E-01
  5.8850000000E+03  2.4193276589E+00  7.0558117380E+00  3.7365277339E-02  3.6606061691E-02  3.6571607119E-01
  5.8900000000E+03  2.4217194729E+00  7.0533491673E+00  3.7458048391E-02  3.6695579646E-02  3.6593959740E-01
  5.8950000000E+03  2.4241116190E+00  7.0508895446E+00  3.7550969615E-02  3.6785236454E-02  3.6616299701E-01
  5.9000000000E+03  2.4265040970E+00  7.0484328637E+00  3.7644041123E-02  3.6875032198E-02  3.6638627043E-01
  5.9050000000E+03  2.4288969065E+00  7.0459791189E+00  3.7737263027E-02  3.6964966959E-02  3.6660941804E-01
  5.9100000000E+03  2.4312900473E+00  7.0435283039E+00  3.7830635440E-02  3.7055040819E-02  3.6683244026E-01
  5.9150000000E+03  2.4336835193E+00  7.0410804129E+00  3.7924158474E-02  3.7145253860E-02  3.6705533746E-01
  5.9200000000E+03  2.4360785936E+00  7.0386354399E+00  3.8017832241E-02  3.7235606461E-02  3.6727811006E-01
  5.9250000000E+03  2.4384741801E+00  7.0361933790E+00  3.8111656855E-02  3.7326098451E-02  3.6750075843E-01
  5.9300000000E+03  2.4408700987E+00  7.0337542242E+00  3.8205632427E-02  3.7416729869E-02  3.6772328297E-01
  5.9350000000E+03  2.4432663490E+00  7.0313179697E+00  3.8299759069E-02  3.7507500796E-02  3.6794568407E-01
  5.9400000000E+03  2.4456629309E+00  7.0288846095E+00  3.8394036894E-02  3.7598411315E-02  3.6816796212E-01
  5.9450000000E+03  2.4480598442E+00  7.0264541378E+00  3.8488466015E-02  3.7689461507E-02  3.6839011752E-01
  5.9500000000E+03  2.4504570886E+00  7.0240265487E+00  3.8583046543E-02  3.7780651452E-02  3.6861215065E-01
  5.9550000000E+03  2.4528546639E+00  7.0216018365E+00  3.8677778591E-02  3.7871981233E-02  3.6883406190E-01
  5.9600000000E+03  2.4552525698E+00  7.0191799952E+00  3.8772662271E-02  3.7963450929E-02  3.6905585165E-01
  5.9650000000E+03  2.4576508061E+00  7.0168024325E+00  3.8867697695E-02  3.8055061841E-02  3.6927752029E-01
  5.9700000000E+03  2.4600493726E+00  7.0144293157E+00  3.8962884976E-02  3.8146812892E-02  3.6949906821E-01
  5.9750000000E+03  2.4624604664E+00  7.0120589872E+00  3.9058224226E-02  3.8238707055E-02  3.6972049580E-01
  5.9800000000E+03  2.4648728220E+00  7.0096914414E+00  3.9153715557E-02  3.8330741712E-02  3.6994180342E-01
  5.9850000000E+03  2.4672855218E+00  7.0073266727E+00  3.9249359080E-02  3.8422916724E-02  3.7016299148E-01
  5.9900000000E+03  2.4696985655E+00  7.0049646755E+00  3.9345154909E-02  3.8515232171E-02  3.7038406035E-01
  5.9950000000E+03  2.4721119528E+00  7.0026054443E+00  3.9441103156E-02  3.8607688135E-02  3.7060501041E-01
  6.0000000000E+03  2.4745256836E+00  7.0002489735E+00  3.9537203932E-02  3.8700284696E-02  3.7082584204E-01
  6.0050000000E+03  2.4769397575E+00  6.9978952576E+00  3.9634248844E-02  3.8793780216E-02  3.7104655562E-01
  6.0100000000E+03  2.4793541744E+00  6.9955442911E+00  3.9731449777E-02  3.8887419507E-02  3.7126715153E-01
  6.0150000000E+03  2.4817689340E+00  6.9931960685E+00  3.9828806846E-02  3.8981202654E-02  3.7148763015E-01
  6.0200000000E+03  2.4841840360E+00  6.9908505844E+00  3.9926320171E-02  3.9075129741E-02  3.7170799186E-01
  6.0250000000E+03  2.4865994803E+00  6.9885078331E+00  4.0023989870E-02  3.9169200853E-02  3.7192823703E-01
  6.0300000000E+03  2.4890205088E+00  6.9861678094E+00  4.0121816060E-02  3.9263417380E-02  3.7214836604E-01
  6.0350000000E+03  2.4914426002E+00  6.9838305078E+00  4.0219798858E-02  3.9357778289E-02  3.7236837926E-01
  6.0400000000E+03  2.4938650397E+00  6.9814959228E+00  4.0317938384E-02  3.9452283488E-02  3.7258827706E-01
  6.0450000000E+03  2.4962878271E+00  6.9791640490E+00  4.0416234754E-02  3.9546933062E-02  3.7280805983E-01
  6.0500000000E+03  2.4987109623E+00  6.9768348812E+00  4.0514688087E-02  3.9641727096E-02  3.7302772793E-01
  6.0550000000E+03  2.5011344448E+00  6.9745084138E+00  4.0613298500E-02  3.9736665673E-02  3.7324728174E-01
  6.0600000000E+03  2.5035582746E+00  6.9722163765E+00  4.0712066111E-02  3.9831749915E-02  3.7346672162E-01
  6.0650000000E+03  2.5059824514E+00  6.9699363754E+00  4.0810991038E-02  3.9926979187E-02  3.7368604794E-01
  6.0700000000E+03  2.5084069749E+00  6.9676589978E+00  4.0910073398E-02  4.0022353269E-02  3.7390526109E-01
  6.0750000000E+03  2.5108318449E+00  6.9653842387E+00  4.1009313310E-02  4.0117872245E-02  3.7412436142E-01
  6.0800000000E+03  2.5132570611E+00  6.9631120927E+00  4.1108710891E-02  4.0213536199E-02  3.7434334930E-01
  6.0850000000E+03  2.5157096949E+00  6.9608425547E+00  4.1208266258E-02  4.0309352166E-02  3.7456222510E-01
  6.0900000000E+03  2.5181727231E+00  6.9585756197E+00  4.1307979530E-02  4.0405315906E-02  3.7478098919E-01
  6.0950000000E+03  2.5206361385E+00  6.9563112825E+00  4.1407850824E-02  4.0501424942E-02  3.7499964193E-01
  6.1000000000E+03  2.5230999407E+00  6.9540495379E+00  4.1507880258E-02  4.0597679356E-02  3.7521818369E-01
  6.1050000000E+03  2.5255641296E+00  6.9517903810E+00  4.1608067949E-02  4.0694079234E-02  3.7543661484E-01
  6.1100000000E+03  2.5280287047E+00  6.9495338065E+00  4.1708414015E-02  4.0790624659E-02  3.7565493573E-01
  6.1150000000E+03  2.5304936660E+00  6.9472798096E+00  4.1808918574E-02  4.0887315716E-02  3.7587314673E-01
  6.1200000000E+03  2.5329590132E+00  6.9450283850E+00  4.1909581744E-02  4.0984152488E-02  3.7609124821E-01
  6.1250000000E+03  2.5354247459E+00  6.9427795278E+00  4.2010403641E-02  4.1081135059E-02  3.7630924051E-01
  6.1300000000E+03  2.5378908639E+00  6.9405332330E+00  4.2111384383E-02  4.1178263512E-02  3.7652712402E-01
  6.1350000000E+03  2.5403573670E+00  6.9382894956E+00  4.2212524089E-02  4.1275537932E-02  3.7674489908E-01
  6.1400000000E+03  2.5428242490E+00  6.9360483105E+00  4.2313822876E-02  4.1372958400E-02  3.7696256605E-01
  6.1450000000E+03  2.5452915089E+00  6.9338096728E+00  4.2415280860E-02  4.1470525000E-02  3.7718012530E-01
  6.1500000000E+03  2.5477591531E+00  6.9315735775E+00  4.2516898160E-02  4.1568237817E-02  3.7739757718E-01
  6.1550000000E+03  2.5502271814E+00  6.9293507145E+00  4.2618674894E-02  4.1666097320E-02  3.7761492206E-01
  6.1600000000E+03  2.5526955935E+00  6.9271589228E+00  4.2720611178E-02  4.1764104248E-02  3.7783216028E-01
  6.1650000000E+03  2.5551643891E+00  6.9249696018E+00  4.2822707130E-02  4.1862257656E-02  3.7804929221E-01
  6.1700000000E+03  2.5576335680E+00  6.9227827468E+00  4.2924962868E-02  4.1960557626E-02  3.7826631841E-01
  6.1750000000E+03  2.5601031300E+00  6.9205983530E+00  4.3027378509E-02  4.2059004243E-02  3.7848323936E-01
  6.1800000000E+03  2.5625730747E+00  6.9184164157E+00  4.3129954171E-02  4.2157597588E-02  3.7870005539E-01
  6.1850000000E+03  2.5650434020E+00  6.9162369300E+00  4.3232689971E-02  4.2256337745E-02  3.7891676684E-01
  6.1900000000E+03  2.5675141116E+00  6.9140598913E+00  4.3335586026E-02  4.2355224797E-02  3.7913337407E-01
  6.1950000000E+03  2.5699851396E+00  6.9118852949E+00  4.3438642455E-02  4.2454258809E-02  3.7934987740E-01
  6.2000000000E+03  2.5724560730E+00  6.9097131360E+00  4.3541859373E-02  4.2553439751E-02  3.7956627718E-01
  6.2050000000E+03  2.5749273873E+00  6.9075434099E+00  4.3645236899E-02  4.2652767835E-02  3.7978257375E-01
  6.2100000000E+03  2.5773990824E+00  6.9053761120E+00  4.3748775150E-02  4.2752243143E-02  3.7999876744E-01
  6.2150000000E+03  2.5798711579E+00  6.9032112376E+00  4.3852474244E-02  4.2851865758E-02  3.8021485860E-01
  6.2200000000E+03  2.5823436136E+00  6.9010487820E+00  4.3956334297E-02  4.2951635762E-02  3.8043084756E-01
  6.2250000000E+03  2.5848164492E+00  6.8988887406E+00  4.4060355427E-02  4.3051553237E-02  3.8064673466E-01
  6.2300000000E+03  2.5872896646E+00  6.8967311088E+00  4.4164537752E-02  4.3151618267E-02  3.8086252024E-01
  6.2350000000E+03  2.5897632594E+00  6.8945758819E+00  4.4268881388E-02  4.3251830932E-02  3.8107820462E-01
  6.2400000000E+03  2.5922372334E+00  6.8924230554E+00  4.4373386453E-02  4.3352191315E-02  3.8129378814E-01
  6.2450000000E+03  2.5947115863E+00  6.8902726245E+00  4.4478053064E-02  4.3452699498E-02  3.8150927115E-01
  6.2500000000E+03  2.5971863180E+00  6.8881245849E+00  4.4582881339E-02  4.3553355563E-02  3.8172465396E-01
  6.2550000000E+03  2.5996612864E+00  6.8859961330E+00  4.4687871395E-02  4.3654160244E-02  3.8193993692E-01
  6.2600000000E+03  2.6021365578E+00  6.8838902739E+00  4.4793023349E-02  4.3755113772E-02  3.8215512036E-01
  6.2650000000E+03  2.6046122069E+00  6.8817867393E+00  4.4898337317E-02  4.3856215440E-02  3.8237020460E-01
  6.2700000000E+03  2.6070882336E+00  6.8796855249E+00  4.5003813419E-02  4.3957465331E-02  3.8258518998E-01
  6.2750000000E+03  2.6095646374E+00  6.8775866262E+00  4.5109451769E-02  4.4058863525E-02  3.8280007683E-01
  6.2800000000E+03  2.6120414184E+00  6.8754900389E+00  4.5215252487E-02  4.4160410105E-02  3.8301486547E-01
  6.2850000000E+03  2.6145185760E+00  6.8733957585E+00  4.5321215689E-02  4.4262105152E-02  3.8322955624E-01
  6.2900000000E+03  2.6169961102E+00  6.8713037807E+00  4.5427341491E-02  4.4363948746E-02  3.8344414947E-01
  6.2950000000E+03  2.6194740207E+00  6.8692141012E+00  4.5533630012E-02  4.4465940970E-02  3.8365864547E-01
  6.3000000000E+03  2.6219523073E+00  6.8671267155E+00  4.5640081368E-02  4.4568081905E-02  3.8387304459E-01
  6.3050000000E+03  2.6244309696E+00  6.8650416194E+00  4.5746695677E-02  4.4670371631E-02  3.8408734714E-01
  6.3100000000E+03  2.6269099357E+00  6.8629588085E+00  4.5853473055E-02  4.4772810210E-02  3.8430155345E-01
  6.3150000000E+03  2.6293885134E+00  6.8608782785E+00  4.5960413620E-02  4.4875397519E-02  3.8451566384E-01
  6.3200000000E+03  2.6318674653E+00  6.8588000251E+00  4.6067517489E-02  4.4978133862E-02  3.8472967865E-01
  6.3250000000E+03  2.6343467911E+00  6.8567240441E+00  4.6174784779E-02  4.5081019319E-02  3.8494359819E-01
  6.3300000000E+03  2.6368264906E+00  6.8546503311E+00  4.6282215606E-02  4.5184053970E-02  3.8515742279E-01
  6.3350000000E+03  2.6393065635E+00  6.8525788818E+00  4.6389810089E-02  4.5287237896E-02  3.8537115277E-01
  6.3400000000E+03  2.6417870097E+00  6.8505096921E+00  4.6497568343E-02  4.5390571179E-02  3.8558478845E-01
  6.3450000000E+03  2.6442678288E+00  6.8484427577E+00  4.6605490486E-02  4.5494053898E-02  3.8579833016E-01
  6.3500000000E+03  2.6467490207E+00  6.8463780743E+00  4.6713576635E-02  4.5597686133E-02  3.8601177821E-01
