#[MATERIAL DEFINITION FOR MC-GPU: interaction mean free path and sampling data from PENELOPE 2018]
#[MATERIAL NAME]
# ovaries_testes                                                
#[NOMINAL DENSITY (g/cm^3)]
#   1.04000000
#[NUMBER OF DATA VALUES]
#  23002
#[MEAN FREE PATHS (cm) (ie, average distance between interactions)]
#[Energy (eV)     | Rayleigh        | Compton         | Photoelectric   | TOTAL (+pair prod) (cm) | Rayleigh: max cumul prob F^2]
  5.0000000000E+03  1.7139022066E+00  8.2210211143E+00  2.3469390228E-02  2.3087333112E-02  3.4909443370E-01
  5.0050000000E+03  1.7159354067E+00  8.2157998072E+00  2.3540226204E-02  2.3156207470E-02  3.4935698262E-01
  5.0100000000E+03  1.7179689851E+00  8.2105870248E+00  2.3611204730E-02  2.3225216134E-02  3.4961921927E-01
  5.0150000000E+03  1.7200041897E+00  8.2053827447E+00  2.3682325950E-02  2.3294359451E-02  3.4988114428E-01
  5.0200000000E+03  1.7220405200E+00  8.2001869445E+00  2.3753590006E-02  2.3363637448E-02  3.5014275830E-01
  5.0250000000E+03  1.7240772303E+00  8.1949996020E+00  2.3824997042E-02  2.3433050103E-02  3.5040406197E-01
  5.0300000000E+03  1.7261143203E+00  8.1898206951E+00  2.3896547203E-02  2.3502597533E-02  3.5066505592E-01
  5.0350000000E+03  1.7281517897E+00  8.1846502016E+00  2.3968240631E-02  2.3572279855E-02  3.5092574079E-01
  5.0400000000E+03  1.7301896382E+00  8.1794880995E+00  2.4040077470E-02  2.3642097183E-02  3.5118611721E-01
  5.0450000000E+03  1.7322278656E+00  8.1743343669E+00  2.4112057864E-02  2.3712049635E-02  3.5144618582E-01
  5.0500000000E+03  1.7342664714E+00  8.1691889821E+00  2.4184181956E-02  2.3782137326E-02  3.5170594725E-01
  5.0550000000E+03  1.7363054554E+00  8.1640519231E+00  2.4256449889E-02  2.3852360371E-02  3.5196540211E-01
  5.0600000000E+03  1.7383451451E+00  8.1589231683E+00  2.4328861807E-02  2.3922718949E-02  3.5222455104E-01
  5.0650000000E+03  1.7403858221E+00  8.1538026962E+00  2.4401417854E-02  2.3993213229E-02  3.5248339466E-01
  5.0700000000E+03  1.7424268777E+00  8.1486904851E+00  2.4474118173E-02  2.4063843212E-02  3.5274193360E-01
  5.0750000000E+03  1.7444683114E+00  8.1435865137E+00  2.4546962907E-02  2.4134609013E-02  3.5300016846E-01
  5.0800000000E+03  1.7465101232E+00  8.1384907605E+00  2.4619952201E-02  2.4205510749E-02  3.5325809987E-01
  5.0850000000E+03  1.7485523125E+00  8.1334910331E+00  2.4693086197E-02  2.4276549316E-02  3.5351572845E-01
  5.0900000000E+03  1.7505948792E+00  8.1285078022E+00  2.4766365040E-02  2.4347724134E-02  3.5377305480E-01
  5.0950000000E+03  1.7526378230E+00  8.1235325126E+00  2.4839788871E-02  2.4419035242E-02  3.5403007954E-01
  5.1000000000E+03  1.7546811434E+00  8.1185651440E+00  2.4913357837E-02  2.4490482756E-02  3.5428680328E-01
  5.1050000000E+03  1.7567248404E+00  8.1136056759E+00  2.4987072078E-02  2.4562066790E-02  3.5454322663E-01
  5.1100000000E+03  1.7587691339E+00  8.1086540881E+00  2.5060931740E-02  2.4633787503E-02  3.5479935019E-01
  5.1150000000E+03  1.7608138058E+00  8.1037103603E+00  2.5134936966E-02  2.4705644968E-02  3.5505517457E-01
  5.1200000000E+03  1.7628588536E+00  8.0987744725E+00  2.5209087898E-02  2.4777639299E-02  3.5531070036E-01
  5.1250000000E+03  1.7649042769E+00  8.0938464045E+00  2.5283384682E-02  2.4849770611E-02  3.5556592818E-01
  5.1300000000E+03  1.7669500755E+00  8.0889261364E+00  2.5357827459E-02  2.4922039019E-02  3.5582085861E-01
  5.1350000000E+03  1.7689962490E+00  8.0840136482E+00  2.5432416374E-02  2.4994444638E-02  3.5607549226E-01
  5.1400000000E+03  1.7710427971E+00  8.0791089200E+00  2.5507151571E-02  2.5066987581E-02  3.5632982971E-01
  5.1450000000E+03  1.7730897196E+00  8.0742119322E+00  2.5582033192E-02  2.5139667965E-02  3.5658387157E-01
  5.1500000000E+03  1.7751370162E+00  8.0693226649E+00  2.5657061381E-02  2.5212485903E-02  3.5683761842E-01
  5.1550000000E+03  1.7771851299E+00  8.0644410985E+00  2.5732236282E-02  2.5285441600E-02  3.5709107086E-01
  5.1600000000E+03  1.7792339924E+00  8.0595672134E+00  2.5807558038E-02  2.5358535157E-02  3.5734422950E-01
  5.1650000000E+03  1.7812832292E+00  8.0547526338E+00  2.5883026793E-02  2.5431767128E-02  3.5759709517E-01
  5.1700000000E+03  1.7833328401E+00  8.0499871360E+00  2.5958642691E-02  2.5505137535E-02  3.5784966861E-01
  5.1750000000E+03  1.7853828245E+00  8.0452290601E+00  2.6034405873E-02  2.5578646081E-02  3.5810195051E-01
  5.1800000000E+03  1.7874331824E+00  8.0404783875E+00  2.6110316486E-02  2.5652292880E-02  3.5835394157E-01
  5.1850000000E+03  1.7894839134E+00  8.0357350994E+00  2.6186374670E-02  2.5726078046E-02  3.5860564247E-01
  5.1900000000E+03  1.7915350172E+00  8.0309991773E+00  2.6262580571E-02  2.5800001693E-02  3.5885705391E-01
  5.1950000000E+03  1.7935864934E+00  8.0262706027E+00  2.6338934332E-02  2.5874063935E-02  3.5910817658E-01
  5.2000000000E+03  1.7956383463E+00  8.0215493571E+00  2.6415436096E-02  2.5948264886E-02  3.5935901116E-01
  5.2050000000E+03  1.7976911143E+00  8.0168354221E+00  2.6492086007E-02  2.6022604775E-02  3.5960955833E-01
  5.2100000000E+03  1.7997442547E+00  8.0121287794E+00  2.6568884208E-02  2.6097083600E-02  3.5985981878E-01
  5.2150000000E+03  1.8017977672E+00  8.0074294108E+00  2.6645830843E-02  2.6171701478E-02  3.6010979318E-01
  5.2200000000E+03  1.8038516514E+00  8.0027372980E+00  2.6722926054E-02  2.6246458520E-02  3.6035948220E-01
  5.2250000000E+03  1.8059059071E+00  7.9980524229E+00  2.6800169987E-02  2.6321354840E-02  3.6060888651E-01
  5.2300000000E+03  1.8079605341E+00  7.9933747674E+00  2.6877562784E-02  2.6396390553E-02  3.6085800680E-01
  5.2350000000E+03  1.8100155319E+00  7.9887043135E+00  2.6955104589E-02  2.6471565771E-02  3.6110684372E-01
  5.2400000000E+03  1.8120709004E+00  7.9840410433E+00  2.7032795544E-02  2.6546880608E-02  3.6135539793E-01
  5.2450000000E+03  1.8141266393E+00  7.9793849389E+00  2.7110635795E-02  2.6622335177E-02  3.6160367011E-01
  5.2500000000E+03  1.8161833805E+00  7.9748200992E+00  2.7188625484E-02  2.6697930671E-02  3.6185166091E-01
  5.2550000000E+03  1.8182414989E+00  7.9702682560E+00  2.7266764754E-02  2.6773666423E-02  3.6209937099E-01
  5.2600000000E+03  1.8202999890E+00  7.9657233362E+00  2.7345053750E-02  2.6849542260E-02  3.6234680100E-01
  5.2650000000E+03  1.8223588503E+00  7.9611853225E+00  2.7423492614E-02  2.6925558297E-02  3.6259395160E-01
  5.2700000000E+03  1.8244180828E+00  7.9566541980E+00  2.7502081490E-02  2.7001714646E-02  3.6284082343E-01
  5.2750000000E+03  1.8264776860E+00  7.9521299456E+00  2.7580820522E-02  2.7078011421E-02  3.6308741715E-01
  5.2800000000E+03  1.8285376598E+00  7.9476125485E+00  2.7659709854E-02  2.7154448734E-02  3.6333373340E-01
  5.2850000000E+03  1.8305980037E+00  7.9431019898E+00  2.7738749628E-02  2.7231026698E-02  3.6357977283E-01
  5.2900000000E+03  1.8326587176E+00  7.9385982527E+00  2.7817939988E-02  2.7307745427E-02  3.6382553607E-01
  5.2950000000E+03  1.8347198011E+00  7.9341013204E+00  2.7897281078E-02  2.7384605031E-02  3.6407102376E-01
  5.3000000000E+03  1.8367811236E+00  7.9296111762E+00  2.7976773041E-02  2.7461605596E-02  3.6431623654E-01
  5.3050000000E+03  1.8388427519E+00  7.9251278036E+00  2.8056416020E-02  2.7538747249E-02  3.6456117504E-01
  5.3100000000E+03  1.8409047488E+00  7.9206511859E+00  2.8136210160E-02  2.7616030115E-02  3.6480583990E-01
  5.3150000000E+03  1.8429671139E+00  7.9161813065E+00  2.8216155604E-02  2.7693454308E-02  3.6505023174E-01
  5.3200000000E+03  1.8450298471E+00  7.9117181491E+00  2.8296252494E-02  2.7771019939E-02  3.6529435120E-01
  5.3250000000E+03  1.8470929479E+00  7.9072616972E+00  2.8376500975E-02  2.7848727121E-02  3.6553819889E-01
  5.3300000000E+03  1.8491564161E+00  7.9028158074E+00  2.8456901190E-02  2.7926576014E-02  3.6578177544E-01
  5.3350000000E+03  1.8512202515E+00  7.8984599457E+00  2.8537453283E-02  2.8004567732E-02  3.6602508147E-01
  5.3400000000E+03  1.8532844538E+00  7.8941105618E+00  2.8618157397E-02  2.8082701349E-02  3.6626811760E-01
  5.3450000000E+03  1.8553490226E+00  7.8897676402E+00  2.8699013675E-02  2.8160976977E-02  3.6651088445E-01
  5.3500000000E+03  1.8574137555E+00  7.8854311652E+00  2.8780022261E-02  2.8239394683E-02  3.6675338262E-01
  5.3550000000E+03  1.8594788244E+00  7.8811011212E+00  2.8861183299E-02  2.8317954616E-02  3.6699561273E-01
  5.3600000000E+03  1.8615442588E+00  7.8767774926E+00  2.8942496932E-02  2.8396656897E-02  3.6723757539E-01
  5.3650000000E+03  1.8636100584E+00  7.8724602641E+00  2.9023963303E-02  2.8475501637E-02  3.6747927121E-01
  5.3700000000E+03  1.8656762229E+00  7.8681494202E+00  2.9105582556E-02  2.8554488947E-02  3.6772070079E-01
  5.3750000000E+03  1.8677427520E+00  7.8638449455E+00  2.9187354835E-02  2.8633618939E-02  3.6796186473E-01
  5.3800000000E+03  1.8698096455E+00  7.8595468247E+00  2.9269280283E-02  2.8712891724E-02  3.6820276364E-01
  5.3850000000E+03  1.8718769030E+00  7.8552550425E+00  2.9351359043E-02  2.8792307415E-02  3.6844339811E-01
  5.3900000000E+03  1.8739445244E+00  7.8509695838E+00  2.9433591259E-02  2.8871866122E-02  3.6868376875E-01
  5.3950000000E+03  1.8760125092E+00  7.8466904332E+00  2.9515977075E-02  2.8951567956E-02  3.6892387614E-01
  5.4000000000E+03  1.8780816504E+00  7.8424175758E+00  2.9598516633E-02  2.9031413219E-02  3.6916372088E-01
  5.4050000000E+03  1.8801511733E+00  7.8381509964E+00  2.9681210077E-02  2.9111401838E-02  3.6940330356E-01
  5.4100000000E+03  1.8822210600E+00  7.8338906800E+00  2.9764057552E-02  2.9191533920E-02  3.6964262477E-01
  5.4150000000E+03  1.8842913102E+00  7.8296366117E+00  2.9847059200E-02  2.9271809576E-02  3.6988168509E-01
  5.4200000000E+03  1.8863619236E+00  7.8254634036E+00  2.9930215164E-02  2.9352229966E-02  3.7012048511E-01
  5.4250000000E+03  1.8884328999E+00  7.8213060557E+00  3.0013525589E-02  2.9432794302E-02  3.7035902541E-01
  5.4300000000E+03  1.8905042389E+00  7.8171547432E+00  3.0096990618E-02  2.9513502558E-02  3.7059730657E-01
  5.4350000000E+03  1.8925759403E+00  7.8130094519E+00  3.0180610394E-02  2.9594354845E-02  3.7083532917E-01
  5.4400000000E+03  1.8946480038E+00  7.8088701675E+00  3.0264385060E-02  2.9675351273E-02  3.7107309378E-01
  5.4450000000E+03  1.8967204292E+00  7.8047368758E+00  3.0348314761E-02  2.9756491952E-02  3.7131060099E-01
  5.4500000000E+03  1.8988726382E+00  7.8006095627E+00  3.0432399639E-02  2.9837796606E-02  3.7154785135E-01
  5.4550000000E+03  1.9010257922E+00  7.7964882139E+00  3.0516639839E-02  2.9919246004E-02  3.7178484545E-01
  5.4600000000E+03  1.9031794116E+00  7.7923728154E+00  3.0601035503E-02  3.0000840139E-02  3.7202158385E-01
  5.4650000000E+03  1.9053334962E+00  7.7882633533E+00  3.0685586775E-02  3.0082579124E-02  3.7225806712E-01
  5.4700000000E+03  1.9074880456E+00  7.7841598135E+00  3.0770293799E-02  3.0164463068E-02  3.7249429582E-01
  5.4750000000E+03  1.9096430596E+00  7.7800621820E+00  3.0855156718E-02  3.0246492082E-02  3.7273027052E-01
  5.4800000000E+03  1.9117985376E+00  7.7759704450E+00  3.0940175675E-02  3.0328666278E-02  3.7296599177E-01
  5.4850000000E+03  1.9139544796E+00  7.7718845887E+00  3.1025350814E-02  3.0410985766E-02  3.7320146013E-01
  5.4900000000E+03  1.9161108851E+00  7.7678045992E+00  3.1110682279E-02  3.0493450657E-02  3.7343667616E-01
  5.4950000000E+03  1.9182677537E+00  7.7637304628E+00  3.1196170213E-02  3.0576061061E-02  3.7367164042E-01
  5.5000000000E+03  1.9204290122E+00  7.7596621658E+00  3.1281814759E-02  3.0658818090E-02  3.7390635346E-01
  5.5050000000E+03  1.9225910895E+00  7.7556362020E+00  3.1368055198E-02  3.0742143311E-02  3.7414081583E-01
  5.5100000000E+03  1.9247536348E+00  7.7516610595E+00  3.1454454567E-02  3.0825616990E-02  3.7437502807E-01
  5.5150000000E+03  1.9269166478E+00  7.7476915572E+00  3.1541013015E-02  3.0909238536E-02  3.7460899076E-01
  5.5200000000E+03  1.9290801280E+00  7.7437276821E+00  3.1627730689E-02  3.0993008061E-02  3.7484270460E-01
  5.5250000000E+03  1.9312440753E+00  7.7397694210E+00  3.1714607736E-02  3.1076925681E-02  3.7507617029E-01
  5.5300000000E+03  1.9334084892E+00  7.7358167610E+00  3.1801644304E-02  3.1160991508E-02  3.7530938849E-01
  5.5350000000E+03  1.9355733695E+00  7.7318696892E+00  3.1888840542E-02  3.1245205656E-02  3.7554235985E-01
  5.5400000000E+03  1.9377387159E+00  7.7279281924E+00  3.1976196596E-02  3.1329568240E-02  3.7577508502E-01
  5.5450000000E+03  1.9399045279E+00  7.7239922579E+00  3.2063712614E-02  3.1414079371E-02  3.7600756465E-01
  5.5500000000E+03  1.9420707755E+00  7.7200618728E+00  3.2151388744E-02  3.1498739156E-02  3.7623979939E-01
  5.5550000000E+03  1.9442374780E+00  7.7161370243E+00  3.2239225133E-02  3.1583547713E-02  3.7647178986E-01
  5.5600000000E+03  1.9464046452E+00  7.7122176997E+00  3.2327221930E-02  3.1668505158E-02  3.7670353672E-01
  5.5650000000E+03  1.9485722768E+00  7.7083038860E+00  3.2415379282E-02  3.1753611605E-02  3.7693504061E-01
  5.5700000000E+03  1.9507403725E+00  7.7043955708E+00  3.2503697336E-02  3.1838867165E-02  3.7716630214E-01
  5.5750000000E+03  1.9529089319E+00  7.7004927414E+00  3.2592176241E-02  3.1924271953E-02  3.7739732197E-01
  5.5800000000E+03  1.9550779548E+00  7.6965953850E+00  3.2680816143E-02  3.2009826081E-02  3.7762810071E-01
  5.5850000000E+03  1.9572474407E+00  7.6927034892E+00  3.2769617191E-02  3.2095529661E-02  3.7785863900E-01
  5.5900000000E+03  1.9594173895E+00  7.6888170415E+00  3.2858579532E-02  3.2181382808E-02  3.7808893747E-01
  5.5950000000E+03  1.9615878008E+00  7.6849933035E+00  3.2947703315E-02  3.2267386642E-02  3.7831899672E-01
  5.6000000000E+03  1.9637587217E+00  7.6811960628E+00  3.3036988685E-02  3.2353540667E-02  3.7854881739E-01
  5.6050000000E+03  1.9659301553E+00  7.6774040849E+00  3.3126435792E-02  3.2439844625E-02  3.7877840009E-01
  5.6100000000E+03  1.9681020506E+00  7.6736173575E+00  3.3216044783E-02  3.2526298614E-02  3.7900774543E-01
  5.6150000000E+03  1.9702744072E+00  7.6698358689E+00  3.3305815806E-02  3.2612902746E-02  3.7923685403E-01
  5.6200000000E+03  1.9724472248E+00  7.6660596071E+00  3.3395749008E-02  3.2699657135E-02  3.7946572651E-01
  5.6250000000E+03  1.9746205032E+00  7.6622885602E+00  3.3485844537E-02  3.2786561893E-02  3.7969436346E-01
  5.6300000000E+03  1.9767942420E+00  7.6585227165E+00  3.3576102541E-02  3.2873617131E-02  3.7992276550E-01
  5.6350000000E+03  1.9789684409E+00  7.6547620640E+00  3.3666523167E-02  3.2960822963E-02  3.8015093323E-01
  5.6400000000E+03  1.9811430996E+00  7.6510065912E+00  3.3757106564E-02  3.3048179499E-02  3.8037886724E-01
  5.6450000000E+03  1.9833182178E+00  7.6472562862E+00  3.3847852878E-02  3.3135686853E-02  3.8060656815E-01
  5.6500000000E+03  1.9854938984E+00  7.6435111373E+00  3.3938762258E-02  3.3223345165E-02  3.8083403654E-01
  5.6550000000E+03  1.9876707540E+00  7.6397711331E+00  3.4029834851E-02  3.3311154719E-02  3.8106127301E-01
  5.6600000000E+03  1.9898480693E+00  7.6360362617E+00  3.4121070804E-02  3.3399115428E-02  3.8128827816E-01
  5.6650000000E+03  1.9920258439E+00  7.6323065117E+00  3.4212470267E-02  3.3487227402E-02  3.8151505257E-01
  5.6700000000E+03  1.9942040774E+00  7.6285818715E+00  3.4304033386E-02  3.3575490755E-02  3.8174159683E-01
  5.6750000000E+03  1.9963827697E+00  7.6248623296E+00  3.4395760308E-02  3.3663905597E-02  3.8196791153E-01
  5.6800000000E+03  1.9985619204E+00  7.6211478746E+00  3.4487651183E-02  3.3752472041E-02  3.8219399725E-01
  5.6850000000E+03  2.0007415292E+00  7.6174933065E+00  3.4579706157E-02  3.3841191278E-02  3.8241985458E-01
  5.6900000000E+03  2.0029215958E+00  7.6138642450E+00  3.4671925378E-02  3.3930062759E-02  3.8264548408E-01
  5.6950000000E+03  2.0051021198E+00  7.6102400977E+00  3.4764308994E-02  3.4019086190E-02  3.8287088635E-01
  5.7000000000E+03  2.0072831010E+00  7.6066208537E+00  3.4856857152E-02  3.4108261684E-02  3.8309606195E-01
  5.7050000000E+03  2.0094645928E+00  7.6030065021E+00  3.4949570001E-02  3.4197589366E-02  3.8332101146E-01
  5.7100000000E+03  2.0116465674E+00  7.5993970319E+00  3.5042447688E-02  3.4287069341E-02  3.8354573544E-01
  5.7150000000E+03  2.0138289983E+00  7.5957924322E+00  3.5135490361E-02  3.4376701712E-02  3.8377023447E-01
  5.7200000000E+03  2.0160118854E+00  7.5921926924E+00  3.5228698167E-02  3.4466486590E-02  3.8399450912E-01
  5.7250000000E+03  2.0181952281E+00  7.5885978015E+00  3.5322071254E-02  3.4556424085E-02  3.8421855994E-01
  5.7300000000E+03  2.0203790264E+00  7.5850077489E+00  3.5415609770E-02  3.4646514309E-02  3.8444238750E-01
  5.7350000000E+03  2.0225632797E+00  7.5814225237E+00  3.5509313863E-02  3.4736757372E-02  3.8466599237E-01
  5.7400000000E+03  2.0247479880E+00  7.5778421154E+00  3.5603183680E-02  3.4827153385E-02  3.8488937509E-01
  5.7450000000E+03  2.0269331507E+00  7.5742665132E+00  3.5697219369E-02  3.4917702458E-02  3.8511253623E-01
  5.7500000000E+03  2.0291187677E+00  7.5706957065E+00  3.5791421078E-02  3.5008404703E-02  3.8533547633E-01
  5.7550000000E+03  2.0313049176E+00  7.5671296847E+00  3.5885788954E-02  3.5099260252E-02  3.8555819596E-01
  5.7600000000E+03  2.0334921009E+00  7.5635684373E+00  3.5980323146E-02  3.5190269368E-02  3.8578069566E-01
  5.7650000000E+03  2.0356797383E+00  7.5600119537E+00  3.6075023801E-02  3.5281431986E-02  3.8600297598E-01
  5.7700000000E+03  2.0378678296E+00  7.5564602235E+00  3.6169891066E-02  3.5372748219E-02  3.8622503747E-01
  5.7750000000E+03  2.0400563744E+00  7.5529447153E+00  3.6264925090E-02  3.5464218870E-02  3.8644688067E-01
  5.7800000000E+03  2.0422453726E+00  7.5494747748E+00  3.6360126021E-02  3.5555844269E-02  3.8666850612E-01
  5.7850000000E+03  2.0444348238E+00  7.5460094267E+00  3.6455494005E-02  3.5647623628E-02  3.8688991436E-01
  5.7900000000E+03  2.0466247276E+00  7.5425486611E+00  3.6551029191E-02  3.5739557059E-02  3.8711110594E-01
  5.7950000000E+03  2.0488150839E+00  7.5390924679E+00  3.6646731726E-02  3.5831644670E-02  3.8733208138E-01
  5.8000000000E+03  2.0510058922E+00  7.5356408371E+00  3.6742601759E-02  3.5923886571E-02  3.8755284123E-01
  5.8050000000E+03  2.0531971523E+00  7.5321937587E+00  3.6838639436E-02  3.6016282873E-02  3.8777338601E-01
  5.8100000000E+03  2.0553893571E+00  7.5287512230E+00  3.6934844906E-02  3.6108833836E-02  3.8799371626E-01
  5.8150000000E+03  2.0575825656E+00  7.5253132199E+00  3.7031218317E-02  3.6201539592E-02  3.8821383251E-01
  5.8200000000E+03  2.0597762264E+00  7.5218797397E+00  3.7127759816E-02  3.6294400078E-02  3.8843373528E-01
  5.8250000000E+03  2.0619703391E+00  7.5184507724E+00  3.7224469551E-02  3.6387415406E-02  3.8865342509E-01
  5.8300000000E+03  2.0641649035E+00  7.5150263084E+00  3.7321347669E-02  3.6480585683E-02  3.8887290248E-01
  5.8350000000E+03  2.0663599192E+00  7.5116063377E+00  3.7418394319E-02  3.6573911021E-02  3.8909216795E-01
  5.8400000000E+03  2.0685553860E+00  7.5081908508E+00  3.7515609649E-02  3.6667391527E-02  3.8931122204E-01
  5.8450000000E+03  2.0707513036E+00  7.5047798378E+00  3.7612993805E-02  3.6761027311E-02  3.8953006526E-01
  5.8500000000E+03  2.0729476716E+00  7.5013732891E+00  3.7710546936E-02  3.6854818481E-02  3.8974869811E-01
  5.8550000000E+03  2.0751444898E+00  7.4979711951E+00  3.7808269189E-02  3.6948765148E-02  3.8996712107E-01
  5.8600000000E+03  2.0773417580E+00  7.4945735461E+00  3.7906160713E-02  3.7042867420E-02  3.9018533470E-01
  5.8650000000E+03  2.0795396223E+00  7.4911803326E+00  3.8004221655E-02  3.7137125452E-02  3.9040333957E-01
  5.8700000000E+03  2.0817379920E+00  7.4878504758E+00  3.8102452163E-02  3.7231540782E-02  3.9062113628E-01
  5.8750000000E+03  2.0839368110E+00  7.4845355011E+00  3.8200852384E-02  3.7326112321E-02  3.9083872540E-01
  5.8800000000E+03  2.0861360790E+00  7.4812248121E+00  3.8299422467E-02  3.7420839918E-02  3.9105610750E-01
  5.8850000000E+03  2.0883357957E+00  7.4779183998E+00  3.8398162559E-02  3.7515723681E-02  3.9127328317E-01
  5.8900000000E+03  2.0905359607E+00  7.4746162548E+00  3.8497072807E-02  3.7610763719E-02  3.9149025296E-01
  5.8950000000E+03  2.0927365739E+00  7.4713183682E+00  3.8596153361E-02  3.7705960140E-02  3.9170701746E-01
  5.9000000000E+03  2.0949376349E+00  7.4680247308E+00  3.8695404367E-02  3.7801313053E-02  3.9192357723E-01
  5.9050000000E+03  2.0971391435E+00  7.4647353336E+00  3.8794825973E-02  3.7896822567E-02  3.9213993284E-01
  5.9100000000E+03  2.0993410993E+00  7.4614501675E+00  3.8894418327E-02  3.7992488788E-02  3.9235608484E-01
  5.9150000000E+03  2.1015435020E+00  7.4581692234E+00  3.8994181577E-02  3.8088311826E-02  3.9257203381E-01
  5.9200000000E+03  2.1037479706E+00  7.4548924925E+00  3.9094115870E-02  3.8184292321E-02  3.9278778029E-01
  5.9250000000E+03  2.1059531169E+00  7.4516199657E+00  3.9194221355E-02  3.8280429929E-02  3.9300332485E-01
  5.9300000000E+03  2.1081587117E+00  7.4483516341E+00  3.9294498180E-02  3.8376724681E-02  3.9321866804E-01
  5.9350000000E+03  2.1103647545E+00  7.4450874889E+00  3.9394946491E-02  3.8473176686E-02  3.9343381041E-01
  5.9400000000E+03  2.1125712452E+00  7.4418275210E+00  3.9495566437E-02  3.8569786050E-02  3.9364875252E-01
  5.9450000000E+03  2.1147781834E+00  7.4385717217E+00  3.9596358165E-02  3.8666552883E-02  3.9386349492E-01
  5.9500000000E+03  2.1169855689E+00  7.4353200821E+00  3.9697321824E-02  3.8763477291E-02  3.9407803814E-01
  5.9550000000E+03  2.1191934014E+00  7.4320725935E+00  3.9798457561E-02  3.8860559382E-02  3.9429238274E-01
  5.9600000000E+03  2.1214016806E+00  7.4288292470E+00  3.9899765523E-02  3.8957799263E-02  3.9450652925E-01
  5.9650000000E+03  2.1236104061E+00  7.4256542062E+00  4.0001245860E-02  3.9055198817E-02  3.9472047822E-01
  5.9700000000E+03  2.1258195778E+00  7.4224857367E+00  4.0102898718E-02  3.9152756465E-02  3.9493423019E-01
  5.9750000000E+03  2.1280287287E+00  7.4193212700E+00  4.0204724245E-02  3.9250472084E-02  3.9514778569E-01
  5.9800000000E+03  2.1302382895E+00  7.4161607977E+00  4.0306722590E-02  3.9348345929E-02  3.9536114526E-01
  5.9850000000E+03  2.1324482949E+00  7.4130043114E+00  4.0408893899E-02  3.9446378117E-02  3.9557430943E-01
  5.9900000000E+03  2.1346587446E+00  7.4098518029E+00  4.0511238321E-02  3.9544568756E-02  3.9578727873E-01
  5.9950000000E+03  2.1368696385E+00  7.4067032637E+00  4.0613756004E-02  3.9642917952E-02  3.9600005369E-01
  6.0000000000E+03  2.1390809761E+00  7.4035586855E+00  4.0716447095E-02  3.9741425813E-02  3.9621263484E-01
  6.0050000000E+03  2.1412927573E+00  7.4004180602E+00  4.0820027663E-02  3.9840774430E-02  3.9642502270E-01
  6.0100000000E+03  2.1435049818E+00  7.3972813793E+00  4.0923784986E-02  3.9940284711E-02  3.9663721779E-01
  6.0150000000E+03  2.1457176492E+00  7.3941486348E+00  4.1027719218E-02  4.0039956768E-02  3.9684922064E-01
  6.0200000000E+03  2.1479307592E+00  7.3910198183E+00  4.1131830512E-02  4.0139790713E-02  3.9706103177E-01
  6.0250000000E+03  2.1501443117E+00  7.3878949218E+00  4.1236119023E-02  4.0239786656E-02  3.9727265168E-01
  6.0300000000E+03  2.1523667102E+00  7.3847739370E+00  4.1340584904E-02  4.0339947661E-02  3.9748408091E-01
  6.0350000000E+03  2.1545907076E+00  7.3816568559E+00  4.1445228308E-02  4.0440271310E-02  3.9769531995E-01
  6.0400000000E+03  2.1568151583E+00  7.3785436702E+00  4.1550049390E-02  4.0540757315E-02  3.9790636933E-01
  6.0450000000E+03  2.1590400621E+00  7.3754343719E+00  4.1655048302E-02  4.0641405785E-02  3.9811722955E-01
  6.0500000000E+03  2.1612654186E+00  7.3723289531E+00  4.1760225199E-02  4.0742216831E-02  3.9832790112E-01
  6.0550000000E+03  2.1634912276E+00  7.3692274055E+00  4.1865580234E-02  4.0843190564E-02  3.9853838455E-01
  6.0600000000E+03  2.1657174889E+00  7.3661790523E+00  4.1971113560E-02  4.0944328618E-02  3.9874868034E-01
  6.0650000000E+03  2.1679442020E+00  7.3631490736E+00  4.2076825333E-02  4.1045630049E-02  3.9895878900E-01
  6.0700000000E+03  2.1701713668E+00  7.3601228366E+00  4.2182715704E-02  4.1147094518E-02  3.9916871102E-01
  6.0750000000E+03  2.1723989830E+00  7.3571003335E+00  4.2288784828E-02  4.1248722136E-02  3.9937844690E-01
  6.0800000000E+03  2.1746270503E+00  7.3540815568E+00  4.2395032859E-02  4.1350513011E-02  3.9958799715E-01
  6.0850000000E+03  2.1769006088E+00  7.3510664987E+00  4.2501459949E-02  4.1452483588E-02  3.9979736225E-01
  6.0900000000E+03  2.1791913437E+00  7.3480551517E+00  4.2608066254E-02  4.1554623819E-02  4.0000654271E-01
  6.0950000000E+03  2.1814826061E+00  7.3450475081E+00  4.2714851926E-02  4.1656927795E-02  4.0021553900E-01
  6.1000000000E+03  2.1837743958E+00  7.3420435604E+00  4.2821817120E-02  4.1759395626E-02  4.0042435163E-01
  6.1050000000E+03  2.1860667125E+00  7.3390433009E+00  4.2928961988E-02  4.1862027424E-02  4.0063298109E-01
  6.1100000000E+03  2.1883595558E+00  7.3360467222E+00  4.3036286685E-02  4.1964823299E-02  4.0084142785E-01
  6.1150000000E+03  2.1906529255E+00  7.3330538166E+00  4.3143791364E-02  4.2067783361E-02  4.0104969240E-01
  6.1200000000E+03  2.1929468212E+00  7.3300645768E+00  4.3251476180E-02  4.2170907720E-02  4.0125777524E-01
  6.1250000000E+03  2.1952412427E+00  7.3270789952E+00  4.3359341285E-02  4.2274196486E-02  4.0146567683E-01
  6.1300000000E+03  2.1975361896E+00  7.3240970644E+00  4.3467386833E-02  4.2377649770E-02  4.0167339766E-01
  6.1350000000E+03  2.1998316616E+00  7.3211187770E+00  4.3575612979E-02  4.2481267681E-02  4.0188093821E-01
  6.1400000000E+03  2.2021277863E+00  7.3181441254E+00  4.3684019876E-02  4.2585050378E-02  4.0208829896E-01
  6.1450000000E+03  2.2044245766E+00  7.3151731024E+00  4.3792607678E-02  4.2688997975E-02  4.0229548037E-01
  6.1500000000E+03  2.2067218914E+00  7.3122057005E+00  4.3901376538E-02  4.2793110529E-02  4.0250248293E-01
  6.1550000000E+03  2.2090197305E+00  7.3092585734E+00  4.4010326610E-02  4.2897388725E-02  4.0270930711E-01
  6.1600000000E+03  2.2113180935E+00  7.3063595055E+00  4.4119458048E-02  4.3001833644E-02  4.0291595337E-01
  6.1650000000E+03  2.2136169801E+00  7.3034639381E+00  4.4228771006E-02  4.3106443870E-02  4.0312242218E-01
  6.1700000000E+03  2.2159163900E+00  7.3005718644E+00  4.4338265637E-02  4.3211219512E-02  4.0332871412E-01
  6.1750000000E+03  2.2182163229E+00  7.2976832772E+00  4.4447942095E-02  4.3316160681E-02  4.0353482975E-01
  6.1800000000E+03  2.2205167785E+00  7.2947981695E+00  4.4557800535E-02  4.3421267484E-02  4.0374076957E-01
  6.1850000000E+03  2.2228177565E+00  7.2919165343E+00  4.4667841109E-02  4.3526540032E-02  4.0394653411E-01
  6.1900000000E+03  2.2251192566E+00  7.2890383647E+00  4.4778063971E-02  4.3631978434E-02  4.0415212388E-01
  6.1950000000E+03  2.2274212821E+00  7.2861636536E+00  4.4888469276E-02  4.3737582800E-02  4.0435753938E-01
  6.2000000000E+03  2.2297238566E+00  7.2832923942E+00  4.4999057177E-02  4.3843353248E-02  4.0456278112E-01
  6.2050000000E+03  2.2320269524E+00  7.2804245794E+00  4.5109827828E-02  4.3949289877E-02  4.0476784962E-01
  6.2100000000E+03  2.2343305691E+00  7.2775602025E+00  4.5220781383E-02  4.4055392796E-02  4.0497274537E-01
  6.2150000000E+03  2.2366347064E+00  7.2746992565E+00  4.5331917995E-02  4.4161662113E-02  4.0517746887E-01
  6.2200000000E+03  2.2389393640E+00  7.2718417346E+00  4.5443237818E-02  4.4268097938E-02  4.0538202064E-01
  6.2250000000E+03  2.2412445416E+00  7.2689876299E+00  4.5554741006E-02  4.4374700378E-02  4.0558640116E-01
  6.2300000000E+03  2.2435502390E+00  7.2661369355E+00  4.5666427713E-02  4.4481469542E-02  4.0579061093E-01
  6.2350000000E+03  2.2458564557E+00  7.2632896447E+00  4.5778298093E-02  4.4588405538E-02  4.0599465046E-01
  6.2400000000E+03  2.2481631916E+00  7.2604457508E+00  4.5890352299E-02  4.4695508476E-02  4.0619852023E-01
  6.2450000000E+03  2.2504704462E+00  7.2576052468E+00  4.6002590486E-02  4.4802778462E-02  4.0640222073E-01
  6.2500000000E+03  2.2527782194E+00  7.2547681261E+00  4.6115012807E-02  4.4910215606E-02  4.0660575246E-01
  6.2550000000E+03  2.2550867119E+00  7.2519612406E+00  4.6227619416E-02  4.5017821130E-02  4.0680911590E-01
  6.2600000000E+03  2.2573958290E+00  7.2491892762E+00  4.6340410466E-02  4.5125595305E-02  4.0701231154E-01
  6.2650000000E+03  2.2597054641E+00  7.2464205832E+00  4.6453386112E-02  4.5233536983E-02  4.0721533987E-01
  6.2700000000E+03  2.2620156169E+00  7.2436551552E+00  4.6566546508E-02  4.5341646273E-02  4.0741820137E-01
  6.2750000000E+03  2.2643262871E+00  7.2408929856E+00  4.6679891807E-02  4.5449923282E-02  4.0762089651E-01
  6.2800000000E+03  2.2666374744E+00  7.2381340682E+00  4.6793422163E-02  4.5558368119E-02  4.0782342579E-01
  6.2850000000E+03  2.2689491785E+00  7.2353783964E+00  4.6907137730E-02  4.5666980890E-02  4.0802578967E-01
  6.2900000000E+03  2.2712613992E+00  7.2326259638E+00  4.7021038662E-02  4.5775761704E-02  4.0822798864E-01
  6.2950000000E+03  2.2735741361E+00  7.2298767642E+00  4.7135125113E-02  4.5884710668E-02  4.0843002317E-01
  6.3000000000E+03  2.2758873889E+00  7.2271307911E+00  4.7249397237E-02  4.5993827889E-02  4.0863189373E-01
  6.3050000000E+03  2.2782011574E+00  7.2243880381E+00  4.7363855187E-02  4.6103113475E-02  4.0883360079E-01
  6.3100000000E+03  2.2805153784E+00  7.2216484991E+00  4.7478499117E-02  4.6212567507E-02  4.0903514483E-01
  6.3150000000E+03  2.2828294472E+00  7.2189121676E+00  4.7593329182E-02  4.6322189843E-02  4.0923652631E-01
  6.3200000000E+03  2.2851440298E+00  7.2161790373E+00  4.7708345535E-02  4.6431980863E-02  4.0943774570E-01
  6.3250000000E+03  2.2874591260E+00  7.2134491020E+00  4.7823548330E-02  4.6541940674E-02  4.0963880347E-01
  6.3300000000E+03  2.2897747354E+00  7.2107223555E+00  4.7938937721E-02  4.6652069383E-02  4.0983970007E-01
  6.3350000000E+03  2.2920908578E+00  7.2079987914E+00  4.8054513861E-02  4.6762367097E-02  4.1004043598E-01
  6.3400000000E+03  2.2944074929E+00  7.2052784036E+00  4.8170276906E-02  4.6872833922E-02  4.1024101164E-01
  6.3450000000E+03  2.2967246405E+00  7.2025611859E+00  4.8286227008E-02  4.6983469965E-02  4.1044142752E-01
  6.3500000000E+03  2.2990423001E+00  7.1998471321E+00  4.8402364322E-02  4.7094275333E-02  4.1064168408E-01
