#[MATERIAL DEFINITION FOR MC-GPU: interaction mean free path and sampling data from PENELOPE 2018]
#[MATERIAL NAME]
# muscle                                                        
#[NOMINAL DENSITY (g/cm^3)]
#   1.05000000
#[NUMBER OF DATA VALUES]
#  23002
#[MEAN FREE PATHS (cm) (ie, average distance between interactions)]
#[Energy (eV)     | Rayleigh        | Compton         | Photoelectric   | TOTAL (+pair prod) (cm) | Rayleigh: max cumul prob F^2]
  5.0000000000E+03  1.7320540483E+00  8.1714776222E+00  2.3547669995E-02  2.3165966252E-02  3.4677667910E-01
  5.0050000000E+03  1.7341001918E+00  8.1662985000E+00  2.3618566092E-02  2.3234905072E-02  3.4703791746E-01
  5.0100000000E+03  1.7361467059E+00  8.1611278268E+00  2.3689604243E-02  2.3303977736E-02  3.4729885452E-01
  5.0150000000E+03  1.7381951119E+00  8.1559655804E+00  2.3760784589E-02  2.3373184635E-02  3.4755949091E-01
  5.0200000000E+03  1.7402447997E+00  8.1508117387E+00  2.3832107273E-02  2.3442525774E-02  3.4781982729E-01
  5.0250000000E+03  1.7422948604E+00  8.1456662796E+00  2.3903572436E-02  2.3512001104E-02  3.4807986429E-01
  5.0300000000E+03  1.7443452937E+00  8.1405291813E+00  2.3975180218E-02  2.3581610741E-02  3.4833960254E-01
  5.0350000000E+03  1.7463960993E+00  8.1354004218E+00  2.4046930762E-02  2.3651354797E-02  3.4859904267E-01
  5.0400000000E+03  1.7484472768E+00  8.1302799793E+00  2.4118824209E-02  2.3721233387E-02  3.4885818532E-01
  5.0450000000E+03  1.7504988260E+00  8.1251678321E+00  2.4190860701E-02  2.3791246625E-02  3.4911703111E-01
  5.0500000000E+03  1.7525507466E+00  8.1200639586E+00  2.4263040379E-02  2.3861394625E-02  3.4937558067E-01
  5.0550000000E+03  1.7546030383E+00  8.1149683372E+00  2.4335363384E-02  2.3931677501E-02  3.4963383463E-01
  5.0600000000E+03  1.7566558876E+00  8.1098809465E+00  2.4407829859E-02  2.4002095401E-02  3.4989179361E-01
  5.0650000000E+03  1.7587094549E+00  8.1048017650E+00  2.4480439943E-02  2.4072648471E-02  3.5014945822E-01
  5.0700000000E+03  1.7607633931E+00  8.0997307713E+00  2.4553193780E-02  2.4143336758E-02  3.5040682909E-01
  5.0750000000E+03  1.7628177018E+00  8.0946679443E+00  2.4626091510E-02  2.4214160378E-02  3.5066390684E-01
  5.0800000000E+03  1.7648723809E+00  8.0896132628E+00  2.4699133275E-02  2.4285119442E-02  3.5092069207E-01
  5.0850000000E+03  1.7669274300E+00  8.0846538601E+00  2.4772319217E-02  2.4356214857E-02  3.5117718540E-01
  5.0900000000E+03  1.7689828488E+00  8.0797108179E+00  2.4845649476E-02  2.4427446030E-02  3.5143338744E-01
  5.0950000000E+03  1.7710386369E+00  8.0747756467E+00  2.4919124194E-02  2.4498813000E-02  3.5168929880E-01
  5.1000000000E+03  1.7730947942E+00  8.0698483263E+00  2.4992743513E-02  2.4570315879E-02  3.5194492008E-01
  5.1050000000E+03  1.7751513204E+00  8.0649288366E+00  2.5066507574E-02  2.4641954781E-02  3.5220025190E-01
  5.1100000000E+03  1.7772090926E+00  8.0600171573E+00  2.5140416519E-02  2.4713729989E-02  3.5245529484E-01
  5.1150000000E+03  1.7792672431E+00  8.0551132686E+00  2.5214470489E-02  2.4785641448E-02  3.5271004952E-01
  5.1200000000E+03  1.7813257628E+00  8.0502171505E+00  2.5288669625E-02  2.4857689272E-02  3.5296451653E-01
  5.1250000000E+03  1.7833846512E+00  8.0453287830E+00  2.5363014069E-02  2.4929873572E-02  3.5321869647E-01
  5.1300000000E+03  1.7854439082E+00  8.0404481464E+00  2.5437503963E-02  2.5002194462E-02  3.5347258993E-01
  5.1350000000E+03  1.7875035334E+00  8.0355752208E+00  2.5512139447E-02  2.5074652055E-02  3.5372619751E-01
  5.1400000000E+03  1.7895635266E+00  8.0307099868E+00  2.5586920663E-02  2.5147246463E-02  3.5397951980E-01
  5.1450000000E+03  1.7916238874E+00  8.0258524245E+00  2.5661847753E-02  2.5219977799E-02  3.5423255738E-01
  5.1500000000E+03  1.7936846155E+00  8.0210025146E+00  2.5736920859E-02  2.5292846176E-02  3.5448531085E-01
  5.1550000000E+03  1.7957464097E+00  8.0161602375E+00  2.5812140120E-02  2.5365851846E-02  3.5473778078E-01
  5.1600000000E+03  1.7978091627E+00  8.0113255739E+00  2.5887505680E-02  2.5438994901E-02  3.5498996781E-01
  5.1650000000E+03  1.7998722838E+00  8.0065497176E+00  2.5963017678E-02  2.5512275857E-02  3.5524187278E-01
  5.1700000000E+03  1.8019357728E+00  8.0018225305E+00  2.6038676258E-02  2.5585694733E-02  3.5549349640E-01
  5.1750000000E+03  1.8039996295E+00  7.9971026998E+00  2.6114481560E-02  2.5659251226E-02  3.5574483936E-01
  5.1800000000E+03  1.8060638535E+00  7.9923902071E+00  2.6190433725E-02  2.5732945447E-02  3.5599590236E-01
  5.1850000000E+03  1.8081284445E+00  7.9876850338E+00  2.6266532895E-02  2.5806777509E-02  3.5624668606E-01
  5.1900000000E+03  1.8101934022E+00  7.9829871616E+00  2.6342779212E-02  2.5880747525E-02  3.5649719114E-01
  5.1950000000E+03  1.8122587264E+00  7.9782965722E+00  2.6419172816E-02  2.5954855606E-02  3.5674741830E-01
  5.2000000000E+03  1.8143244215E+00  7.9736132472E+00  2.6495713850E-02  2.6029101865E-02  3.5699736819E-01
  5.2050000000E+03  1.8163910674E+00  7.9689371684E+00  2.6572402454E-02  2.6103486534E-02  3.5724704149E-01
  5.2100000000E+03  1.8184580795E+00  7.9642683177E+00  2.6649238770E-02  2.6178009606E-02  3.5749643887E-01
  5.2150000000E+03  1.8205254578E+00  7.9596066769E+00  2.6726222940E-02  2.6252671191E-02  3.5774556099E-01
  5.2200000000E+03  1.8225932019E+00  7.9549522281E+00  2.6803355104E-02  2.6327471403E-02  3.5799440852E-01
  5.2250000000E+03  1.8246613115E+00  7.9503049533E+00  2.6880635404E-02  2.6402410352E-02  3.5824298213E-01
  5.2300000000E+03  1.8267297863E+00  7.9456648345E+00  2.6958063982E-02  2.6477488150E-02  3.5849128246E-01
  5.2350000000E+03  1.8287986260E+00  7.9410318540E+00  2.7035640979E-02  2.6552704910E-02  3.5873931018E-01
  5.2400000000E+03  1.8308678304E+00  7.9364059939E+00  2.7113366536E-02  2.6628060741E-02  3.5898706594E-01
  5.2450000000E+03  1.8329373992E+00  7.9317872365E+00  2.7191240795E-02  2.6703555756E-02  3.5923455039E-01
  5.2500000000E+03  1.8350081551E+00  7.9272589238E+00  2.7269263896E-02  2.6779191193E-02  3.5948176419E-01
  5.2550000000E+03  1.8370805860E+00  7.9227434925E+00  2.7347435982E-02  2.6854966397E-02  3.5972870797E-01
  5.2600000000E+03  1.8391533831E+00  7.9182349237E+00  2.7425757194E-02  2.6930881134E-02  3.5997538239E-01
  5.2650000000E+03  1.8412265463E+00  7.9137332007E+00  2.7504227673E-02  2.7006935515E-02  3.6022178808E-01
  5.2700000000E+03  1.8433000753E+00  7.9092383065E+00  2.7582847561E-02  2.7083129652E-02  3.6046792568E-01
  5.2750000000E+03  1.8453739697E+00  7.9047502243E+00  2.7661616999E-02  2.7159463655E-02  3.6071379584E-01
  5.2800000000E+03  1.8474482292E+00  7.9002689373E+00  2.7740536127E-02  2.7235937635E-02  3.6095939919E-01
  5.2850000000E+03  1.8495228537E+00  7.8957944288E+00  2.7819605088E-02  2.7312551704E-02  3.6120473636E-01
  5.2900000000E+03  1.8515978428E+00  7.8913266822E+00  2.7898824024E-02  2.7389305973E-02  3.6144980798E-01
  5.2950000000E+03  1.8536731962E+00  7.8868656808E+00  2.7978193074E-02  2.7466200551E-02  3.6169461468E-01
  5.3000000000E+03  1.8557488198E+00  7.8824114082E+00  2.8057712381E-02  2.7543235529E-02  3.6193915708E-01
  5.3050000000E+03  1.8578247616E+00  7.8779638479E+00  2.8137382086E-02  2.7620411028E-02  3.6218343582E-01
  5.3100000000E+03  1.8599010667E+00  7.8735229833E+00  2.8217202331E-02  2.7697727170E-02  3.6242745150E-01
  5.3150000000E+03  1.8619777349E+00  7.8690887983E+00  2.8297173256E-02  2.7775184063E-02  3.6267120476E-01
  5.3200000000E+03  1.8640547659E+00  7.8646612763E+00  2.8377295003E-02  2.7852781819E-02  3.6291469620E-01
  5.3250000000E+03  1.8661321593E+00  7.8602404013E+00  2.8457567714E-02  2.7930520548E-02  3.6315792644E-01
  5.3300000000E+03  1.8682099149E+00  7.8558299923E+00  2.8537991529E-02  2.8008400408E-02  3.6340089610E-01
  5.3350000000E+03  1.8702880324E+00  7.8515087464E+00  2.8618566590E-02  2.8086422520E-02  3.6364360578E-01
  5.3400000000E+03  1.8723665116E+00  7.8471939222E+00  2.8699293038E-02  2.8164585947E-02  3.6388605610E-01
  5.3450000000E+03  1.8744453522E+00  7.8428855040E+00  2.8780171016E-02  2.8242890800E-02  3.6412824766E-01
  5.3500000000E+03  1.8765241980E+00  7.8385834765E+00  2.8861200663E-02  2.8321337109E-02  3.6437018106E-01
  5.3550000000E+03  1.8786033519E+00  7.8342878242E+00  2.8942382121E-02  2.8399925051E-02  3.6461185690E-01
  5.3600000000E+03  1.8806828658E+00  7.8299985316E+00  2.9023715532E-02  2.8478654749E-02  3.6485327579E-01
  5.3650000000E+03  1.8827627395E+00  7.8257155835E+00  2.9105201037E-02  2.8557526311E-02  3.6509443832E-01
  5.3700000000E+03  1.8848429726E+00  7.8214389646E+00  2.9186838777E-02  2.8636539849E-02  3.6533534508E-01
  5.3750000000E+03  1.8869235650E+00  7.8171686596E+00  2.9268628894E-02  2.8715695472E-02  3.6557599668E-01
  5.3800000000E+03  1.8890045163E+00  7.8129046534E+00  2.9350571529E-02  2.8794993289E-02  3.6581639370E-01
  5.3850000000E+03  1.8910858262E+00  7.8086469308E+00  2.9432666823E-02  2.8874433409E-02  3.6605653672E-01
  5.3900000000E+03  1.8931674946E+00  7.8043954768E+00  2.9514914917E-02  2.8954015943E-02  3.6629642635E-01
  5.3950000000E+03  1.8952495210E+00  7.8001502762E+00  2.9597315953E-02  2.9033741000E-02  3.6653606316E-01
  5.4000000000E+03  1.8973329824E+00  7.7959113142E+00  2.9679870073E-02  2.9113608942E-02  3.6677544773E-01
  5.4050000000E+03  1.8994168270E+00  7.7916785758E+00  2.9762577416E-02  2.9193619633E-02  3.6701458065E-01
  5.4100000000E+03  1.9015010302E+00  7.7874520461E+00  2.9845438125E-02  2.9273773177E-02  3.6725346249E-01
  5.4150000000E+03  1.9035855919E+00  7.7832317103E+00  2.9928452342E-02  2.9354069682E-02  3.6749209383E-01
  5.4200000000E+03  1.9056705118E+00  7.7790914071E+00  3.0011620206E-02  2.9434510315E-02  3.6773047525E-01
  5.4250000000E+03  1.9077557895E+00  7.7749668105E+00  3.0094941860E-02  2.9515094279E-02  3.6796860732E-01
  5.4300000000E+03  1.9098414249E+00  7.7708481974E+00  3.0178417445E-02  2.9595821545E-02  3.6820649061E-01
  5.4350000000E+03  1.9119274177E+00  7.7667355538E+00  3.0262047102E-02  2.9676692222E-02  3.6844412569E-01
  5.4400000000E+03  1.9140137675E+00  7.7626288655E+00  3.0345830972E-02  2.9757706418E-02  3.6868151312E-01
  5.4450000000E+03  1.9161004742E+00  7.7585281185E+00  3.0429769197E-02  2.9838864242E-02  3.6891865347E-01
  5.4500000000E+03  1.9182642622E+00  7.7544332986E+00  3.0513861917E-02  2.9920184469E-02  3.6915554730E-01
  5.4550000000E+03  1.9204289695E+00  7.7503443919E+00  3.0598109275E-02  3.0001648800E-02  3.6939219518E-01
  5.4600000000E+03  1.9225941330E+00  7.7462613845E+00  3.0682511412E-02  3.0083257232E-02  3.6962859766E-01
  5.4650000000E+03  1.9247597525E+00  7.7421842624E+00  3.0767068468E-02  3.0165009872E-02  3.6986475530E-01
  5.4700000000E+03  1.9269258275E+00  7.7381130119E+00  3.0851780585E-02  3.0246906831E-02  3.7010066865E-01
  5.4750000000E+03  1.9290923577E+00  7.7340476190E+00  3.0936647904E-02  3.0328948217E-02  3.7033633827E-01
  5.4800000000E+03  1.9312593429E+00  7.7299880700E+00  3.1021670567E-02  3.0411134139E-02  3.7057176472E-01
  5.4850000000E+03  1.9334267827E+00  7.7259343512E+00  3.1106848714E-02  3.0493464707E-02  3.7080694853E-01
  5.4900000000E+03  1.9355946768E+00  7.7218864490E+00  3.1192182488E-02  3.0575940027E-02  3.7104189025E-01
  5.4950000000E+03  1.9377630249E+00  7.7178443496E+00  3.1277672029E-02  3.0658560210E-02  3.7127659044E-01
  5.5000000000E+03  1.9399355282E+00  7.7138080395E+00  3.1363317478E-02  3.0741326293E-02  3.7151104964E-01
  5.5050000000E+03  1.9421088207E+00  7.7098136102E+00  3.1449572580E-02  3.0824673879E-02  3.7174526838E-01
  5.5100000000E+03  1.9442825716E+00  7.7058694563E+00  3.1535985972E-02  3.0908169334E-02  3.7197924722E-01
  5.5150000000E+03  1.9464567805E+00  7.7019308949E+00  3.1622557801E-02  3.0991812059E-02  3.7221298668E-01
  5.5200000000E+03  1.9486314471E+00  7.6979979129E+00  3.1709288212E-02  3.1075602167E-02  3.7244648748E-01
  5.5250000000E+03  1.9508065712E+00  7.6940704974E+00  3.1796177350E-02  3.1159539770E-02  3.7267975028E-01
  5.5300000000E+03  1.9529821524E+00  7.6901486355E+00  3.1883225361E-02  3.1243624980E-02  3.7291277573E-01
  5.5350000000E+03  1.9551581903E+00  7.6862323144E+00  3.1970432390E-02  3.1327857907E-02  3.7314556446E-01
  5.5400000000E+03  1.9573346847E+00  7.6823215212E+00  3.2057798583E-02  3.1412238665E-02  3.7337811710E-01
  5.5450000000E+03  1.9595116353E+00  7.6784162432E+00  3.2145324086E-02  3.1496767363E-02  3.7361043429E-01
  5.5500000000E+03  1.9616891847E+00  7.6745164675E+00  3.2233009045E-02  3.1581444152E-02  3.7384251665E-01
  5.5550000000E+03  1.9638672380E+00  7.6706221816E+00  3.2320853603E-02  3.1666269118E-02  3.7407436482E-01
  5.5600000000E+03  1.9660457468E+00  7.6667333727E+00  3.2408857908E-02  3.1751242360E-02  3.7430597942E-01
  5.5650000000E+03  1.9682247107E+00  7.6628500282E+00  3.2497022105E-02  3.1836363990E-02  3.7453736106E-01
  5.5700000000E+03  1.9704041295E+00  7.6589721356E+00  3.2585346340E-02  3.1921634118E-02  3.7476851038E-01
  5.5750000000E+03  1.9725840027E+00  7.6550996823E+00  3.2673830757E-02  3.2007052855E-02  3.7499942798E-01
  5.5800000000E+03  1.9747643302E+00  7.6512326558E+00  3.2762475503E-02  3.2092620313E-02  3.7523011449E-01
  5.5850000000E+03  1.9769451116E+00  7.6473710437E+00  3.2851280723E-02  3.2178336603E-02  3.7546057050E-01
  5.5900000000E+03  1.9791263465E+00  7.6435148335E+00  3.2940246563E-02  3.2264201835E-02  3.7569079665E-01
  5.5950000000E+03  1.9813080347E+00  7.6397206258E+00  3.3029373167E-02  3.2350217136E-02  3.7592079352E-01
  5.6000000000E+03  1.9834901016E+00  7.6359526266E+00  3.3118660683E-02  3.2436381969E-02  3.7615056173E-01
  5.6050000000E+03  1.9856725420E+00  7.6321898461E+00  3.3208109255E-02  3.2522696071E-02  3.7638010189E-01
  5.6100000000E+03  1.9878554344E+00  7.6284322724E+00  3.3297719029E-02  3.2609159573E-02  3.7660941459E-01
  5.6150000000E+03  1.9900387787E+00  7.6246798937E+00  3.3387490150E-02  3.2695772586E-02  3.7683850042E-01
  5.6200000000E+03  1.9922225744E+00  7.6209326983E+00  3.3477422764E-02  3.2782535220E-02  3.7706736000E-01
  5.6250000000E+03  1.9944068214E+00  7.6171906742E+00  3.3567517017E-02  3.2869447585E-02  3.7729599391E-01
  5.6300000000E+03  1.9965915193E+00  7.6134538099E+00  3.3657773054E-02  3.2956509793E-02  3.7752440274E-01
  5.6350000000E+03  1.9987766678E+00  7.6097220937E+00  3.3748191021E-02  3.3043721953E-02  3.7775258709E-01
  5.6400000000E+03  2.0009622666E+00  7.6059955138E+00  3.3838771062E-02  3.3131084176E-02  3.7798054753E-01
  5.6450000000E+03  2.0031483153E+00  7.6022740587E+00  3.3929513325E-02  3.3218596571E-02  3.7820828467E-01
  5.6500000000E+03  2.0053349156E+00  7.5985577168E+00  3.4020417954E-02  3.3306259277E-02  3.7843579908E-01
  5.6550000000E+03  2.0075226728E+00  7.5948464766E+00  3.4111485095E-02  3.3394072571E-02  3.7866309133E-01
  5.6600000000E+03  2.0097108801E+00  7.5911403265E+00  3.4202714893E-02  3.3482036370E-02  3.7889016202E-01
  5.6650000000E+03  2.0118995372E+00  7.5874392551E+00  3.4294107495E-02  3.3570150783E-02  3.7911701172E-01
  5.6700000000E+03  2.0140886438E+00  7.5837432509E+00  3.4385663045E-02  3.3658415920E-02  3.7934364100E-01
  5.6750000000E+03  2.0162781995E+00  7.5800523026E+00  3.4477381689E-02  3.3746831891E-02  3.7957005043E-01
  5.6800000000E+03  2.0184682042E+00  7.5763663987E+00  3.4569263572E-02  3.3835398804E-02  3.7979624059E-01
  5.6850000000E+03  2.0206586575E+00  7.5727396793E+00  3.4661308842E-02  3.3924117857E-02  3.8002221204E-01
  5.6900000000E+03  2.0228495590E+00  7.5691381780E+00  3.4753517641E-02  3.4012988493E-02  3.8024796535E-01
  5.6950000000E+03  2.0250409085E+00  7.5655415508E+00  3.4845890118E-02  3.4102010417E-02  3.8047350109E-01
  5.7000000000E+03  2.0272327057E+00  7.5619497866E+00  3.4938426416E-02  3.4191183738E-02  3.8069881981E-01
  5.7050000000E+03  2.0294248268E+00  7.5583628746E+00  3.5031126681E-02  3.4280508529E-02  3.8092392208E-01
  5.7100000000E+03  2.0316173343E+00  7.5547808042E+00  3.5123991060E-02  3.4369984918E-02  3.8114880845E-01
  5.7150000000E+03  2.0338102884E+00  7.5512035644E+00  3.5217019697E-02  3.4459613031E-02  3.8137347949E-01
  5.7200000000E+03  2.0360036888E+00  7.5476311445E+00  3.5310212738E-02  3.4549392977E-02  3.8159793574E-01
  5.7250000000E+03  2.0381975351E+00  7.5440635339E+00  3.5403570329E-02  3.4639324865E-02  3.8182217775E-01
  5.7300000000E+03  2.0403918270E+00  7.5405007219E+00  3.5497092616E-02  3.4729408804E-02  3.8204620608E-01
  5.7350000000E+03  2.0425865643E+00  7.5369426978E+00  3.5590779743E-02  3.4819644903E-02  3.8227002128E-01
  5.7400000000E+03  2.0447817466E+00  7.5333894511E+00  3.5684631856E-02  3.4910033271E-02  3.8249362389E-01
  5.7450000000E+03  2.0469773737E+00  7.5298409712E+00  3.5778649101E-02  3.5000574016E-02  3.8271701445E-01
  5.7500000000E+03  2.0491734452E+00  7.5262972475E+00  3.5872831624E-02  3.5091267246E-02  3.8294019351E-01
  5.7550000000E+03  2.0513701001E+00  7.5227582696E+00  3.5967179570E-02  3.5182113112E-02  3.8316316160E-01
  5.7600000000E+03  2.0535682204E+00  7.5192240270E+00  3.6061693084E-02  3.5273111983E-02  3.8338591927E-01
  5.7650000000E+03  2.0557667858E+00  7.5156945092E+00  3.6156372312E-02  3.5364263667E-02  3.8360846706E-01
  5.7700000000E+03  2.0579657959E+00  7.5121697058E+00  3.6251217400E-02  3.5455568274E-02  3.8383080549E-01
  5.7750000000E+03  2.0601652505E+00  7.5086806900E+00  3.6346228493E-02  3.5547026607E-02  3.8405293509E-01
  5.7800000000E+03  2.0623651492E+00  7.5052366902E+00  3.6441405737E-02  3.5638638996E-02  3.8427485641E-01
  5.7850000000E+03  2.0645654917E+00  7.5017972459E+00  3.6536749278E-02  3.5730404648E-02  3.8449656997E-01
  5.7900000000E+03  2.0667662779E+00  7.4983623472E+00  3.6632259260E-02  3.5822323671E-02  3.8471807629E-01
  5.7950000000E+03  2.0689675073E+00  7.4949319842E+00  3.6727935829E-02  3.5914396174E-02  3.8493937590E-01
  5.8000000000E+03  2.0711691797E+00  7.4915061470E+00  3.6823779132E-02  3.6006622264E-02  3.8516046932E-01
  5.8050000000E+03  2.0733712947E+00  7.4880848257E+00  3.6919789313E-02  3.6099002048E-02  3.8538135708E-01
  5.8100000000E+03  2.0755744671E+00  7.4846680105E+00  3.7015966518E-02  3.6191535822E-02  3.8560203970E-01
  5.8150000000E+03  2.0777787708E+00  7.4812556915E+00  3.7112310893E-02  3.6284223718E-02  3.8582251768E-01
  5.8200000000E+03  2.0799835179E+00  7.4778478591E+00  3.7208822582E-02  3.6377065635E-02  3.8604279155E-01
  5.8250000000E+03  2.0821887081E+00  7.4744445034E+00  3.7305501733E-02  3.6470061680E-02  3.8626286183E-01
  5.8300000000E+03  2.0843943413E+00  7.4710456148E+00  3.7402348490E-02  3.6563211961E-02  3.8648272902E-01
  5.8350000000E+03  2.0866004170E+00  7.4676511835E+00  3.7499362998E-02  3.6656516585E-02  3.8670239363E-01
  5.8400000000E+03  2.0888069350E+00  7.4642611999E+00  3.7596545404E-02  3.6749975660E-02  3.8692185618E-01
  5.8450000000E+03  2.0910138950E+00  7.4608756544E+00  3.7693895853E-02  3.6843589292E-02  3.8714111717E-01
  5.8500000000E+03  2.0932212967E+00  7.4574945374E+00  3.7791414490E-02  3.6937357589E-02  3.8736017710E-01
  5.8550000000E+03  2.0954291398E+00  7.4541178392E+00  3.7889101461E-02  3.7031280658E-02  3.8757903645E-01
  5.8600000000E+03  2.0976374240E+00  7.4507455504E+00  3.7986956912E-02  3.7125358606E-02  3.8779769578E-01
  5.8650000000E+03  2.0998468733E+00  7.4473776615E+00  3.8084980988E-02  3.7219591767E-02  3.8801615565E-01
  5.8700000000E+03  2.1020570403E+00  7.4440723216E+00  3.8183173834E-02  3.7313981570E-02  3.8823441663E-01
  5.8750000000E+03  2.1042676489E+00  7.4407816913E+00  3.8281535597E-02  3.7408526854E-02  3.8845247928E-01
  5.8800000000E+03  2.1064786986E+00  7.4374953131E+00  3.8380066421E-02  3.7503227463E-02  3.8867034416E-01
  5.8850000000E+03  2.1086901893E+00  7.4342131779E+00  3.8478766452E-02  3.7598083505E-02  3.8888801183E-01
  5.8900000000E+03  2.1109021206E+00  7.4309352766E+00  3.8577635837E-02  3.7693095085E-02  3.8910548285E-01
  5.8950000000E+03  2.1131144924E+00  7.4276616002E+00  3.8676674719E-02  3.7788262312E-02  3.8932275776E-01
  5.9000000000E+03  2.1153273042E+00  7.4243921396E+00  3.8775883246E-02  3.7883585290E-02  3.8953983713E-01
  5.9050000000E+03  2.1175405558E+00  7.4211268859E+00  3.8875261561E-02  3.7979064127E-02  3.8975672149E-01
  5.9100000000E+03  2.1197542469E+00  7.4178658301E+00  3.8974809812E-02  3.8074698928E-02  3.8997341141E-01
  5.9150000000E+03  2.1219683772E+00  7.4146089632E+00  3.9074528144E-02  3.8170489800E-02  3.9018990742E-01
  5.9200000000E+03  2.1241841215E+00  7.4113562764E+00  3.9174416701E-02  3.8266437230E-02  3.9040621007E-01
  5.9250000000E+03  2.1264004723E+00  7.4081077607E+00  3.9274475630E-02  3.8362541000E-02  3.9062231990E-01
  5.9300000000E+03  2.1286172631E+00  7.4048634073E+00  3.9374705076E-02  3.8458801163E-02  3.9083823745E-01
  5.9350000000E+03  2.1308344937E+00  7.4016232073E+00  3.9475105185E-02  3.8555217822E-02  3.9105396326E-01
  5.9400000000E+03  2.1330521638E+00  7.3983871520E+00  3.9575676102E-02  3.8651791086E-02  3.9126949786E-01
  5.9450000000E+03  2.1352702730E+00  7.3951552325E+00  3.9676417973E-02  3.8748521059E-02  3.9148484180E-01
  5.9500000000E+03  2.1374888212E+00  7.3919274401E+00  3.9777330943E-02  3.8845407847E-02  3.9169999559E-01
  5.9550000000E+03  2.1397078080E+00  7.3887037661E+00  3.9878415158E-02  3.8942451555E-02  3.9191495977E-01
  5.9600000000E+03  2.1419272331E+00  7.3854842018E+00  3.9979670763E-02  3.9039652289E-02  3.9212973488E-01
  5.9650000000E+03  2.1441470963E+00  7.3823320345E+00  4.0081097904E-02  3.9137011934E-02  3.9234432143E-01
  5.9700000000E+03  2.1463673973E+00  7.3791863728E+00  4.0182696727E-02  3.9234528904E-02  3.9255871994E-01
  5.9750000000E+03  2.1485879333E+00  7.3760446834E+00  4.0284467376E-02  3.9332203167E-02  3.9277293095E-01
  5.9800000000E+03  2.1508088910E+00  7.3729069577E+00  4.0386409998E-02  3.9430034890E-02  3.9298695498E-01
  5.9850000000E+03  2.1530302854E+00  7.3697731876E+00  4.0488524738E-02  3.9528024183E-02  3.9320079253E-01
  5.9900000000E+03  2.1552521161E+00  7.3666433647E+00  4.0590811742E-02  3.9626171152E-02  3.9341444414E-01
  5.9950000000E+03  2.1574743830E+00  7.3635174807E+00  4.0693271155E-02  3.9724475901E-02  3.9362791031E-01
  6.0000000000E+03  2.1596970857E+00  7.3603955276E+00  4.0795903122E-02  3.9822938535E-02  3.9384119155E-01
  6.0050000000E+03  2.1619202240E+00  7.3572774969E+00  4.0899441362E-02  3.9922258097E-02  3.9405428839E-01
  6.0100000000E+03  2.1641437976E+00  7.3541633805E+00  4.1003155573E-02  4.0021738610E-02  3.9426720132E-01
  6.0150000000E+03  2.1663678062E+00  7.3510531704E+00  4.1107045909E-02  4.0121380184E-02  3.9447993086E-01
  6.0200000000E+03  2.1685922495E+00  7.3479468583E+00  4.1211112520E-02  4.0221182928E-02  3.9469247751E-01
  6.0250000000E+03  2.1708171272E+00  7.3448444360E+00  4.1315355558E-02  4.0321146952E-02  3.9490484178E-01
  6.0300000000E+03  2.1730501368E+00  7.3417458956E+00  4.1419775174E-02  4.0421275027E-02  3.9511702416E-01
  6.0350000000E+03  2.1752846400E+00  7.3386512290E+00  4.1524371520E-02  4.0521564983E-02  3.9532902517E-01
  6.0400000000E+03  2.1775195876E+00  7.3355604280E+00  4.1629144747E-02  4.0622016567E-02  3.9554084530E-01
  6.0450000000E+03  2.1797549792E+00  7.3324734848E+00  4.1734095007E-02  4.0722629888E-02  3.9575248504E-01
  6.0500000000E+03  2.1819908146E+00  7.3293903912E+00  4.1839222451E-02  4.0823405054E-02  3.9596394489E-01
  6.0550000000E+03  2.1842270934E+00  7.3263111393E+00  4.1944527232E-02  4.0924342174E-02  3.9617522535E-01
  6.0600000000E+03  2.1864638154E+00  7.3232843574E+00  4.2050009499E-02  4.1025442884E-02  3.9638632690E-01
  6.0650000000E+03  2.1887009804E+00  7.3202757160E+00  4.2155669406E-02  4.1126706235E-02  3.9659725005E-01
  6.0700000000E+03  2.1909385880E+00  7.3172707885E+00  4.2261507103E-02  4.1228131885E-02  3.9680799527E-01
  6.0750000000E+03  2.1931766380E+00  7.3142695671E+00  4.2367522741E-02  4.1329719944E-02  3.9701856305E-01
  6.0800000000E+03  2.1954151301E+00  7.3112720443E+00  4.2473716474E-02  4.1431470519E-02  3.9722895388E-01
  6.0850000000E+03  2.1976972553E+00  7.3082782124E+00  4.2580088451E-02  4.1533399146E-02  3.9743916824E-01
  6.0900000000E+03  2.1999958605E+00  7.3052880640E+00  4.2686638824E-02  4.1635496338E-02  3.9764920662E-01
  6.0950000000E+03  2.2022949805E+00  7.3023015914E+00  4.2793367745E-02  4.1737756519E-02  3.9785906949E-01
  6.1000000000E+03  2.2045946149E+00  7.2993187872E+00  4.2900275366E-02  4.1840179798E-02  3.9806875734E-01
  6.1050000000E+03  2.2068947635E+00  7.2963396438E+00  4.3007361838E-02  4.1942766283E-02  3.9827827064E-01
  6.1100000000E+03  2.2091954259E+00  7.2933641537E+00  4.3114627313E-02  4.2045516082E-02  3.9848760986E-01
  6.1150000000E+03  2.2114966018E+00  7.2903923095E+00  4.3222071941E-02  4.2148429305E-02  3.9869677548E-01
  6.1200000000E+03  2.2137982910E+00  7.2874241038E+00  4.3329695876E-02  4.2251506058E-02  3.9890576797E-01
  6.1250000000E+03  2.2161004931E+00  7.2844595290E+00  4.3437499267E-02  4.2354746451E-02  3.9911458781E-01
  6.1300000000E+03  2.2184032079E+00  7.2814985778E+00  4.3545482267E-02  4.2458150592E-02  3.9932323546E-01
  6.1350000000E+03  2.2207064349E+00  7.2785412429E+00  4.3653645028E-02  4.2561718589E-02  3.9953171138E-01
  6.1400000000E+03  2.2230104082E+00  7.2755875169E+00  4.3761987700E-02  4.2665450635E-02  3.9974001606E-01
  6.1450000000E+03  2.2253151515E+00  7.2726373923E+00  4.3870510435E-02  4.2769346850E-02  3.9994814994E-01
  6.1500000000E+03  2.2276204069E+00  7.2696908620E+00  4.3979213386E-02  4.2873407244E-02  4.0015611349E-01
  6.1550000000E+03  2.2299261739E+00  7.2667643393E+00  4.4088096703E-02  4.2977632502E-02  4.0036390717E-01
  6.1600000000E+03  2.2322324524E+00  7.2638852076E+00  4.4197160538E-02  4.3082023704E-02  4.0057153145E-01
  6.1650000000E+03  2.2345392420E+00  7.2610095513E+00  4.4306405042E-02  4.3186579429E-02  4.0077898678E-01
  6.1700000000E+03  2.2368465425E+00  7.2581373633E+00  4.4415830368E-02  4.3291299787E-02  4.0098627377E-01
  6.1750000000E+03  2.2391543534E+00  7.2552686367E+00  4.4525436666E-02  4.3396184884E-02  4.0119339299E-01
  6.1800000000E+03  2.2414626746E+00  7.2524033644E+00  4.4635224089E-02  4.3501234828E-02  4.0140034493E-01
  6.1850000000E+03  2.2437715057E+00  7.2495415396E+00  4.4745192788E-02  4.3606449725E-02  4.0160713008E-01
  6.1900000000E+03  2.2460808464E+00  7.2466831553E+00  4.4855342914E-02  4.3711829685E-02  4.0181374894E-01
  6.1950000000E+03  2.2483906938E+00  7.2438282046E+00  4.4965674619E-02  4.3817374812E-02  4.0202020200E-01
  6.2000000000E+03  2.2507010309E+00  7.2409766806E+00  4.5076188054E-02  4.3923085207E-02  4.0222648975E-01
  6.2050000000E+03  2.2530118766E+00  7.2381285764E+00  4.5186883372E-02  4.4028960984E-02  4.0243261266E-01
  6.2100000000E+03  2.2553232308E+00  7.2352838852E+00  4.5297760724E-02  4.4135002252E-02  4.0263857124E-01
  6.2150000000E+03  2.2576350930E+00  7.2324426002E+00  4.5408820260E-02  4.4241209115E-02  4.0284436595E-01
  6.2200000000E+03  2.2599474630E+00  7.2296047145E+00  4.5520062134E-02  4.4347581682E-02  4.0304999728E-01
  6.2250000000E+03  2.2622603406E+00  7.2267702213E+00  4.5631486497E-02  4.4454120058E-02  4.0325546571E-01
  6.2300000000E+03  2.2645737253E+00  7.2239391139E+00  4.5743093499E-02  4.4560824351E-02  4.0346077172E-01
  6.2350000000E+03  2.2668876170E+00  7.2211113854E+00  4.5854883293E-02  4.4667694667E-02  4.0366591579E-01
  6.2400000000E+03  2.2692020153E+00  7.2182870293E+00  4.5966856031E-02  4.4774731111E-02  4.0387089838E-01
  6.2450000000E+03  2.2715169199E+00  7.2154660387E+00  4.6079011863E-02  4.4881933791E-02  4.0407571998E-01
  6.2500000000E+03  2.2738323306E+00  7.2126484070E+00  4.6191350942E-02  4.4989302813E-02  4.0428038105E-01
  6.2550000000E+03  2.2761484150E+00  7.2098605892E+00  4.6303873420E-02  4.5096839384E-02  4.0448488207E-01
  6.2600000000E+03  2.2784650941E+00  7.2071072019E+00  4.6416579447E-02  4.5204543779E-02  4.0468922350E-01
  6.2650000000E+03  2.2807822787E+00  7.2043570631E+00  4.6529469175E-02  4.5312414856E-02  4.0489340580E-01
  6.2700000000E+03  2.2830999684E+00  7.2016101665E+00  4.6642542756E-02  4.5420452720E-02  4.0509742945E-01
  6.2750000000E+03  2.2854181631E+00  7.1988665056E+00  4.6755800342E-02  4.5528657479E-02  4.0530129491E-01
  6.2800000000E+03  2.2877368623E+00  7.1961260741E+00  4.6869242084E-02  4.5637029238E-02  4.0550500264E-01
  6.2850000000E+03  2.2900560658E+00  7.1933888655E+00  4.6982868134E-02  4.5745568102E-02  4.0570855310E-01
  6.2900000000E+03  2.2923757733E+00  7.1906548736E+00  4.7096678643E-02  4.5854274177E-02  4.0591194675E-01
  6.2950000000E+03  2.2946959845E+00  7.1879240919E+00  4.7210673763E-02  4.5963147570E-02  4.0611518405E-01
  6.3000000000E+03  2.2970166991E+00  7.1851965143E+00  4.7324853647E-02  4.6072188384E-02  4.0631826544E-01
  6.3050000000E+03  2.2993379168E+00  7.1824721343E+00  4.7439218444E-02  4.6181396726E-02  4.0652119140E-01
  6.3100000000E+03  2.3016595955E+00  7.1797509457E+00  4.7553768308E-02  4.6290772684E-02  4.0672396236E-01
  6.3150000000E+03  2.3039813308E+00  7.1770329422E+00  4.7668503389E-02  4.6400316199E-02  4.0692657879E-01
  6.3200000000E+03  2.3063035678E+00  7.1743181176E+00  4.7783423839E-02  4.6510027555E-02  4.0712904113E-01
  6.3250000000E+03  2.3086263061E+00  7.1716064657E+00  4.7898529810E-02  4.6619906859E-02  4.0733134982E-01
  6.3300000000E+03  2.3109495455E+00  7.1688979803E+00  4.8013821454E-02  4.6729954215E-02  4.0753350532E-01
  6.3350000000E+03  2.3132732857E+00  7.1661926551E+00  4.8129298922E-02  4.6840169727E-02  4.0773550808E-01
  6.3400000000E+03  2.3155975264E+00  7.1634904839E+00  4.8244962366E-02  4.6950553501E-02  4.0793735853E-01
  6.3450000000E+03  2.3179222674E+00  7.1607914607E+00  4.8360811937E-02  4.7061105640E-02  4.0813905712E-01
  6.3500000000E+03  2.3202475082E+00  7.1580955793E+00  4.8476847788E-02  4.7171826251E-02  4.0834060428E-01
