#[MATERIAL DEFINITION FOR MC-GPU: interaction mean free path and sampling data from PENELOPE 2018]
#[MATERIAL NAME]
# lymph                                                         
#[NOMINAL DENSITY (g/cm^3)]
#   1.03000000
#[NUMBER OF DATA VALUES]
#  23002
#[MEAN FREE PATHS (cm) (ie, average distance between interactions)]
#[Energy (eV)     | Rayleigh        | Compton         | Photoelectric   | TOTAL (+pair prod) (cm) | Rayleigh: max cumul prob F^2]
  5.0000000000E+03  1.6929864742E+00  8.2712824443E+00  2.3363273242E-02  2.2981218287E-02  3.5166952473E-01
  5.0050000000E+03  1.6950049174E+00  8.2660216257E+00  2.3433963986E-02  2.3049945389E-02  3.5193322132E-01
  5.0100000000E+03  1.6970237481E+00  8.2607694011E+00  2.3504797601E-02  2.3118807098E-02  3.5219659307E-01
  5.0150000000E+03  1.6990438653E+00  8.2555257480E+00  2.3575774233E-02  2.3187803702E-02  3.5245964062E-01
  5.0200000000E+03  1.7010649083E+00  8.2502906437E+00  2.3646894027E-02  2.3256935251E-02  3.5272236463E-01
  5.0250000000E+03  1.7030863397E+00  8.2450640658E+00  2.3718157130E-02  2.3326201766E-02  3.5298476574E-01
  5.0300000000E+03  1.7051081593E+00  8.2398459921E+00  2.3789563686E-02  2.3395603362E-02  3.5324684459E-01
  5.0350000000E+03  1.7071303668E+00  8.2346364002E+00  2.3861113840E-02  2.3465140159E-02  3.5350860182E-01
  5.0400000000E+03  1.7091529618E+00  8.2294352679E+00  2.3932807738E-02  2.3534812274E-02  3.5377003809E-01
  5.0450000000E+03  1.7111759440E+00  8.2242425732E+00  2.4004645525E-02  2.3604619824E-02  3.5403115401E-01
  5.0500000000E+03  1.7131993132E+00  8.2190582940E+00  2.4076627348E-02  2.3674562927E-02  3.5429195024E-01
  5.0550000000E+03  1.7152230691E+00  8.2138824083E+00  2.4148753350E-02  2.3744641700E-02  3.5455242740E-01
  5.0600000000E+03  1.7172475616E+00  8.2087148943E+00  2.4221023677E-02  2.3814856329E-02  3.5481258614E-01
  5.0650000000E+03  1.7192730920E+00  8.2035557302E+00  2.4293438476E-02  2.3885206989E-02  3.5507242707E-01
  5.0700000000E+03  1.7212990094E+00  8.1984048943E+00  2.4365997891E-02  2.3955693674E-02  3.5533195082E-01
  5.0750000000E+03  1.7233253136E+00  8.1932623649E+00  2.4438702067E-02  2.4026316500E-02  3.5559115804E-01
  5.0800000000E+03  1.7253520042E+00  8.1881281205E+00  2.4511551150E-02  2.4097075584E-02  3.5585004933E-01
  5.0850000000E+03  1.7273790810E+00  8.1830902990E+00  2.4584545286E-02  2.4167971814E-02  3.5610862532E-01
  5.0900000000E+03  1.7294065436E+00  8.1780690716E+00  2.4657684619E-02  2.4239004620E-02  3.5636688663E-01
  5.0950000000E+03  1.7314343917E+00  8.1730558508E+00  2.4730969296E-02  2.4310174046E-02  3.5662483389E-01
  5.1000000000E+03  1.7334626251E+00  8.1680506159E+00  2.4804399461E-02  2.4381480210E-02  3.5688246770E-01
  5.1050000000E+03  1.7354912434E+00  8.1630533464E+00  2.4877975260E-02  2.4452923227E-02  3.5713978870E-01
  5.1100000000E+03  1.7375196839E+00  8.1580640219E+00  2.4951696839E-02  2.4524503102E-02  3.5739679747E-01
  5.1150000000E+03  1.7395485022E+00  8.1530826220E+00  2.5025564342E-02  2.4596220063E-02  3.5765349465E-01
  5.1200000000E+03  1.7415777037E+00  8.1481091264E+00  2.5099577915E-02  2.4668074228E-02  3.5790988084E-01
  5.1250000000E+03  1.7436072882E+00  8.1431435148E+00  2.5173737704E-02  2.4740065712E-02  3.5816595665E-01
  5.1300000000E+03  1.7456372554E+00  8.1381857670E+00  2.5248043854E-02  2.4812194632E-02  3.5842172268E-01
  5.1350000000E+03  1.7476676049E+00  8.1332358630E+00  2.5322496510E-02  2.4884461106E-02  3.5867717954E-01
  5.1400000000E+03  1.7496983364E+00  8.1282937827E+00  2.5397095817E-02  2.4956865249E-02  3.5893232783E-01
  5.1450000000E+03  1.7517294497E+00  8.1233595061E+00  2.5471841922E-02  2.5029407177E-02  3.5918716815E-01
  5.1500000000E+03  1.7537609444E+00  8.1184330135E+00  2.5546734970E-02  2.5102087008E-02  3.5944170110E-01
  5.1550000000E+03  1.7557930529E+00  8.1135142848E+00  2.5621775106E-02  2.5174904904E-02  3.5969592729E-01
  5.1600000000E+03  1.7578257394E+00  8.1086033005E+00  2.5696962475E-02  2.5247860976E-02  3.5994984733E-01
  5.1650000000E+03  1.7598588069E+00  8.1037519307E+00  2.5772297223E-02  2.5320955806E-02  3.6020346207E-01
  5.1700000000E+03  1.7618922554E+00  8.0989499025E+00  2.5847779495E-02  2.5394189420E-02  3.6045677226E-01
  5.1750000000E+03  1.7639260843E+00  8.0941553575E+00  2.5923409436E-02  2.5467561528E-02  3.6070977860E-01
  5.1800000000E+03  1.7659602935E+00  8.0893682770E+00  2.5999187193E-02  2.5541072246E-02  3.6096248180E-01
  5.1850000000E+03  1.7679948826E+00  8.0845886422E+00  2.6075112910E-02  2.5614721689E-02  3.6121488257E-01
  5.1900000000E+03  1.7700298513E+00  8.0798164341E+00  2.6151186734E-02  2.5688509975E-02  3.6146698161E-01
  5.1950000000E+03  1.7720651994E+00  8.0750516343E+00  2.6227408808E-02  2.5762437218E-02  3.6171877962E-01
  5.2000000000E+03  1.7741009295E+00  8.0702942240E+00  2.6303779280E-02  2.5836503535E-02  3.6197027729E-01
  5.2050000000E+03  1.7761374023E+00  8.0655441848E+00  2.6380298293E-02  2.5910709119E-02  3.6222147533E-01
  5.2100000000E+03  1.7781742540E+00  8.0608014981E+00  2.6456965994E-02  2.5985054008E-02  3.6247237443E-01
  5.2150000000E+03  1.7802114844E+00  8.0560661455E+00  2.6533782529E-02  2.6059538317E-02  3.6272297527E-01
  5.2200000000E+03  1.7822490932E+00  8.0513381086E+00  2.6610748042E-02  2.6134162162E-02  3.6297327854E-01
  5.2250000000E+03  1.7842870800E+00  8.0466173692E+00  2.6687862678E-02  2.6208925659E-02  3.6322328494E-01
  5.2300000000E+03  1.7863254446E+00  8.0419039091E+00  2.6765126585E-02  2.6283828922E-02  3.6347299513E-01
  5.2350000000E+03  1.7883641868E+00  8.0371977100E+00  2.6842539906E-02  2.6358872068E-02  3.6372240981E-01
  5.2400000000E+03  1.7904033061E+00  8.0324987539E+00  2.6920102787E-02  2.6434055210E-02  3.6397152965E-01
  5.2450000000E+03  1.7924428023E+00  8.0278070227E+00  2.6997815374E-02  2.6509378464E-02  3.6422035532E-01
  5.2500000000E+03  1.7944832328E+00  8.0232071013E+00  2.7075677812E-02  2.6584842997E-02  3.6446888749E-01
  5.2550000000E+03  1.7965249279E+00  8.0186202689E+00  2.7153690247E-02  2.6660448147E-02  3.6471712685E-01
  5.2600000000E+03  1.7985670010E+00  8.0140404174E+00  2.7231852824E-02  2.6736193767E-02  3.6496507405E-01
  5.2650000000E+03  1.8006094517E+00  8.0094675292E+00  2.7310165688E-02  2.6812079974E-02  3.6521272976E-01
  5.2700000000E+03  1.8026522799E+00  8.0049015874E+00  2.7388628985E-02  2.6888106881E-02  3.6546009464E-01
  5.2750000000E+03  1.8046954851E+00  8.0003425747E+00  2.7467242861E-02  2.6964274604E-02  3.6570716936E-01
  5.2800000000E+03  1.8067390671E+00  7.9957904741E+00  2.7546007461E-02  2.7040583258E-02  3.6595395457E-01
  5.2850000000E+03  1.8087830256E+00  7.9912452686E+00  2.7624922930E-02  2.7117032956E-02  3.6620045092E-01
  5.2900000000E+03  1.8108273603E+00  7.9867069412E+00  2.7703989413E-02  2.7193623814E-02  3.6644665908E-01
  5.2950000000E+03  1.8128720710E+00  7.9821754750E+00  2.7783207057E-02  2.7270355945E-02  3.6669257969E-01
  5.3000000000E+03  1.8149168977E+00  7.9776508533E+00  2.7862576007E-02  2.7347229407E-02  3.6693821341E-01
  5.3050000000E+03  1.8169619737E+00  7.9731330591E+00  2.7942096408E-02  2.7424244341E-02  3.6718356087E-01
  5.3100000000E+03  1.8190074243E+00  7.9686220758E+00  2.8021768406E-02  2.7501400892E-02  3.6742862272E-01
  5.3150000000E+03  1.8210532492E+00  7.9641178868E+00  2.8101592145E-02  2.7578699173E-02  3.6767339961E-01
  5.3200000000E+03  1.8230994481E+00  7.9596204754E+00  2.8181567772E-02  2.7656139299E-02  3.6791789216E-01
  5.3250000000E+03  1.8251460208E+00  7.9551298250E+00  2.8261695433E-02  2.7733721384E-02  3.6816210103E-01
  5.3300000000E+03  1.8271929668E+00  7.9506498185E+00  2.8341975271E-02  2.7811445588E-02  3.6840602685E-01
  5.3350000000E+03  1.8292402861E+00  7.9462604627E+00  2.8422407434E-02  2.7889313014E-02  3.6864967025E-01
  5.3400000000E+03  1.8312879782E+00  7.9418776385E+00  2.8502992066E-02  2.7967322752E-02  3.6889303185E-01
  5.3450000000E+03  1.8333360429E+00  7.9375013302E+00  2.8583729314E-02  2.8045474916E-02  3.6913611229E-01
  5.3500000000E+03  1.8353841040E+00  7.9331315220E+00  2.8664619321E-02  2.8123769533E-02  3.6937891220E-01
  5.3550000000E+03  1.8374324814E+00  7.9287681981E+00  2.8745662235E-02  2.8202206790E-02  3.6962143219E-01
  5.3600000000E+03  1.8394812300E+00  7.9244113430E+00  2.8826858200E-02  2.8280786813E-02  3.6986367289E-01
  5.3650000000E+03  1.8415303496E+00  7.9200609408E+00  2.8908207361E-02  2.8359509717E-02  3.7010563492E-01
  5.3700000000E+03  1.8435798398E+00  7.9157169763E+00  2.8989709865E-02  2.8438375614E-02  3.7034731890E-01
  5.3750000000E+03  1.8456297003E+00  7.9113794337E+00  2.9071365857E-02  2.8517384619E-02  3.7058872544E-01
  5.3800000000E+03  1.8476799310E+00  7.9070482977E+00  2.9153175483E-02  2.8596536844E-02  3.7082985515E-01
  5.3850000000E+03  1.8497305314E+00  7.9027235528E+00  2.9235138887E-02  2.8675832403E-02  3.7107070865E-01
  5.3900000000E+03  1.8517815014E+00  7.8984051838E+00  2.9317256215E-02  2.8755271409E-02  3.7131128654E-01
  5.3950000000E+03  1.8538328406E+00  7.8940931752E+00  2.9399527614E-02  2.8834853975E-02  3.7155158943E-01
  5.4000000000E+03  1.8558858142E+00  7.8897875119E+00  2.9481953227E-02  2.8914580521E-02  3.7179161793E-01
  5.4050000000E+03  1.8579391866E+00  7.8854881787E+00  2.9564533202E-02  2.8994450863E-02  3.7203137264E-01
  5.4100000000E+03  1.8599929291E+00  7.8811951604E+00  2.9647267682E-02  2.9074465107E-02  3.7227085416E-01
  5.4150000000E+03  1.8620470414E+00  7.8769084418E+00  2.9730156815E-02  2.9154623364E-02  3.7251006308E-01
  5.4200000000E+03  1.8641015232E+00  7.8727032212E+00  2.9813200744E-02  2.9234926787E-02  3.7274900000E-01
  5.4250000000E+03  1.8661563743E+00  7.8685139878E+00  2.9896399617E-02  2.9315374597E-02  3.7298766553E-01
  5.4300000000E+03  1.8682115944E+00  7.8643308398E+00  2.9979753578E-02  2.9395966774E-02  3.7322606024E-01
  5.4350000000E+03  1.8702671832E+00  7.8601537627E+00  3.0063262773E-02  2.9476703428E-02  3.7346418473E-01
  5.4400000000E+03  1.8723231404E+00  7.8559827422E+00  3.0146927347E-02  2.9557584674E-02  3.7370203959E-01
  5.4450000000E+03  1.8743794658E+00  7.8518177638E+00  3.0230747446E-02  2.9638610623E-02  3.7393962540E-01
  5.4500000000E+03  1.8765184864E+00  7.8476588134E+00  3.0314723215E-02  2.9719802039E-02  3.7417694275E-01
  5.4550000000E+03  1.8786584804E+00  7.8435058767E+00  3.0398854800E-02  2.9801138669E-02  3.7441399223E-01
  5.4600000000E+03  1.8807989509E+00  7.8393589395E+00  3.0483142346E-02  2.9882620503E-02  3.7465077440E-01
  5.4650000000E+03  1.8829398976E+00  7.8352179876E+00  3.0567586000E-02  2.9964247652E-02  3.7488728985E-01
  5.4700000000E+03  1.8850813202E+00  7.8310830070E+00  3.0652185905E-02  3.0046020230E-02  3.7512353915E-01
  5.4750000000E+03  1.8872232182E+00  7.8269539836E+00  3.0736942209E-02  3.0127938350E-02  3.7535952288E-01
  5.4800000000E+03  1.8893655915E+00  7.8228309033E+00  3.0821855056E-02  3.0210002124E-02  3.7559524161E-01
  5.4850000000E+03  1.8915084396E+00  7.8187137522E+00  3.0906924592E-02  3.0292211665E-02  3.7583069592E-01
  5.4900000000E+03  1.8936517623E+00  7.8146025164E+00  3.0992150963E-02  3.0374567086E-02  3.7606588636E-01
  5.4950000000E+03  1.8957955592E+00  7.8104971820E+00  3.1077534313E-02  3.0457068499E-02  3.7630081351E-01
  5.5000000000E+03  1.8979440635E+00  7.8063977352E+00  3.1163074789E-02  3.0539717112E-02  3.7653547793E-01
  5.5050000000E+03  1.9000934255E+00  7.8023409914E+00  3.1249196459E-02  3.0622919716E-02  3.7676988019E-01
  5.5100000000E+03  1.9022432670E+00  7.7983355134E+00  3.1335477504E-02  3.0706271188E-02  3.7700402084E-01
  5.5150000000E+03  1.9043935877E+00  7.7943357220E+00  3.1421918074E-02  3.0789770945E-02  3.7723790045E-01
  5.5200000000E+03  1.9065443871E+00  7.7903416040E+00  3.1508518319E-02  3.0873419104E-02  3.7747151975E-01
  5.5250000000E+03  1.9086956651E+00  7.7863531461E+00  3.1595278389E-02  3.0957215778E-02  3.7770487947E-01
  5.5300000000E+03  1.9108474211E+00  7.7823703353E+00  3.1682198433E-02  3.1041161085E-02  3.7793798028E-01
  5.5350000000E+03  1.9129996551E+00  7.7783931584E+00  3.1769278600E-02  3.1125255140E-02  3.7817082284E-01
  5.5400000000E+03  1.9151523665E+00  7.7744216025E+00  3.1856519040E-02  3.1209498057E-02  3.7840340785E-01
  5.5450000000E+03  1.9173055551E+00  7.7704556545E+00  3.1943919903E-02  3.1293889952E-02  3.7863573595E-01
  5.5500000000E+03  1.9194589210E+00  7.7664953014E+00  3.2031481338E-02  3.1378430859E-02  3.7886780781E-01
  5.5550000000E+03  1.9216126621E+00  7.7625405303E+00  3.2119203495E-02  3.1463120948E-02  3.7909962411E-01
  5.5600000000E+03  1.9237668788E+00  7.7585913284E+00  3.2207086523E-02  3.1547960358E-02  3.7933118550E-01
  5.5650000000E+03  1.9259215709E+00  7.7546476828E+00  3.2295130573E-02  3.1632949205E-02  3.7956249264E-01
  5.5700000000E+03  1.9280767381E+00  7.7507095806E+00  3.2383335793E-02  3.1718087605E-02  3.7979354618E-01
  5.5750000000E+03  1.9302323799E+00  7.7467770092E+00  3.2471702333E-02  3.1803375671E-02  3.8002434677E-01
  5.5800000000E+03  1.9323884961E+00  7.7428499559E+00  3.2560230344E-02  3.1888813519E-02  3.8025489508E-01
  5.5850000000E+03  1.9345450864E+00  7.7389284078E+00  3.2648919973E-02  3.1974401262E-02  3.8048519173E-01
  5.5900000000E+03  1.9367021504E+00  7.7350123525E+00  3.2737771372E-02  3.2060139017E-02  3.8071523738E-01
  5.5950000000E+03  1.9388596878E+00  7.7311595908E+00  3.2826784690E-02  3.2146027895E-02  3.8094503268E-01
  5.6000000000E+03  1.9410179194E+00  7.7273335692E+00  3.2915960076E-02  3.2232067458E-02  3.8117457826E-01
  5.6050000000E+03  1.9431768601E+00  7.7235128531E+00  3.3005297679E-02  3.2318257454E-02  3.8140387475E-01
  5.6100000000E+03  1.9453362738E+00  7.7196974304E+00  3.3094797651E-02  3.2404597934E-02  3.8163292280E-01
  5.6150000000E+03  1.9474961603E+00  7.7158872891E+00  3.3184460139E-02  3.2491089013E-02  3.8186172303E-01
  5.6200000000E+03  1.9496565192E+00  7.7120824171E+00  3.3274285295E-02  3.2577730804E-02  3.8209027608E-01
  5.6250000000E+03  1.9518173502E+00  7.7082828025E+00  3.3364273267E-02  3.2664523422E-02  3.8231858258E-01
  5.6300000000E+03  1.9539786531E+00  7.7044884333E+00  3.3454424205E-02  3.2751466980E-02  3.8254664314E-01
  5.6350000000E+03  1.9561404274E+00  7.7006992977E+00  3.3544738259E-02  3.2838561593E-02  3.8277445840E-01
  5.6400000000E+03  1.9583026729E+00  7.6969153838E+00  3.3635215578E-02  3.2925807375E-02  3.8300202896E-01
  5.6450000000E+03  1.9604653892E+00  7.6931366797E+00  3.3725856312E-02  3.3013204438E-02  3.8322935546E-01
  5.6500000000E+03  1.9626286626E+00  7.6893631738E+00  3.3816660612E-02  3.3100752923E-02  3.8345643851E-01
  5.6550000000E+03  1.9647930073E+00  7.6855948543E+00  3.3907628625E-02  3.3188453088E-02  3.8368327871E-01
  5.6600000000E+03  1.9669578228E+00  7.6818317094E+00  3.3998760503E-02  3.3276304879E-02  3.8390987669E-01
  5.6650000000E+03  1.9691231088E+00  7.6780737275E+00  3.4090056394E-02  3.3364308408E-02  3.8413623304E-01
  5.6700000000E+03  1.9712888650E+00  7.6743208970E+00  3.4181516449E-02  3.3452463788E-02  3.8436234838E-01
  5.6750000000E+03  1.9734550911E+00  7.6705732062E+00  3.4273140817E-02  3.3540771134E-02  3.8458822331E-01
  5.6800000000E+03  1.9756217867E+00  7.6668306437E+00  3.4364929647E-02  3.3629230559E-02  3.8481385843E-01
  5.6850000000E+03  1.9777889516E+00  7.6631485548E+00  3.4456883090E-02  3.3717843246E-02  3.8503925434E-01
  5.6900000000E+03  1.9799565854E+00  7.6594922170E+00  3.4549001295E-02  3.3806608654E-02  3.8526441164E-01
  5.6950000000E+03  1.9821246879E+00  7.6558408329E+00  3.4641284412E-02  3.3895526496E-02  3.8548933093E-01
  5.7000000000E+03  1.9842932587E+00  7.6521943916E+00  3.4733732591E-02  3.3984596885E-02  3.8571401279E-01
  5.7050000000E+03  1.9864622600E+00  7.6485528821E+00  3.4826345981E-02  3.4073819922E-02  3.8593845781E-01
  5.7100000000E+03  1.9886317105E+00  7.6449162932E+00  3.4919124731E-02  3.4163195727E-02  3.8616266660E-01
  5.7150000000E+03  1.9908016285E+00  7.6412846142E+00  3.5012068993E-02  3.4252724417E-02  3.8638663972E-01
  5.7200000000E+03  1.9929720134E+00  7.6376578341E+00  3.5105178915E-02  3.4342406105E-02  3.8661037776E-01
  5.7250000000E+03  1.9951428650E+00  7.6340359419E+00  3.5198454646E-02  3.4432240905E-02  3.8683388132E-01
  5.7300000000E+03  1.9973141830E+00  7.6304189270E+00  3.5291896338E-02  3.4522228928E-02  3.8705715095E-01
  5.7350000000E+03  1.9994859671E+00  7.6268067783E+00  3.5385504139E-02  3.4612370287E-02  3.8728018726E-01
  5.7400000000E+03  2.0016582170E+00  7.6231994852E+00  3.5479278199E-02  3.4702665096E-02  3.8750299080E-01
  5.7450000000E+03  2.0038309324E+00  7.6195970369E+00  3.5573218668E-02  3.4793113465E-02  3.8772556215E-01
  5.7500000000E+03  2.0060041130E+00  7.6159994227E+00  3.5667325696E-02  3.4883715507E-02  3.8794790189E-01
  5.7550000000E+03  2.0081777891E+00  7.6124066319E+00  3.5761599432E-02  3.4974471345E-02  3.8817001057E-01
  5.7600000000E+03  2.0103521546E+00  7.6088186539E+00  3.5856040027E-02  3.5065381149E-02  3.8839188878E-01
  5.7650000000E+03  2.0125269848E+00  7.6052354780E+00  3.5950647629E-02  3.5156444964E-02  3.8861353707E-01
  5.7700000000E+03  2.0147022793E+00  7.6016570937E+00  3.6045422389E-02  3.5247662902E-02  3.8883495600E-01
  5.7750000000E+03  2.0168780377E+00  7.5981153003E+00  3.6140364456E-02  3.5339035762E-02  3.8905614614E-01
  5.7800000000E+03  2.0190542599E+00  7.5946195415E+00  3.6235473980E-02  3.5430563875E-02  3.8927710805E-01
  5.7850000000E+03  2.0212309454E+00  7.5911284117E+00  3.6330751112E-02  3.5522246463E-02  3.8949784228E-01
  5.7900000000E+03  2.0234080939E+00  7.5876419007E+00  3.6426196000E-02  3.5614083637E-02  3.8971834938E-01
  5.7950000000E+03  2.0255857053E+00  7.5841599984E+00  3.6521808794E-02  3.5706075510E-02  3.8993862991E-01
  5.8000000000E+03  2.0277637791E+00  7.5806826948E+00  3.6617589645E-02  3.5798222193E-02  3.9015868442E-01
  5.8050000000E+03  2.0299423151E+00  7.5772099799E+00  3.6713538701E-02  3.5890523798E-02  3.9037851346E-01
  5.8100000000E+03  2.0321214850E+00  7.5737418437E+00  3.6809656113E-02  3.5982980490E-02  3.9059811757E-01
  5.8150000000E+03  2.0343013091E+00  7.5702782761E+00  3.6905942031E-02  3.6075592388E-02  3.9081749729E-01
  5.8200000000E+03  2.0364815949E+00  7.5668192672E+00  3.7002396604E-02  3.6168359542E-02  3.9103665318E-01
  5.8250000000E+03  2.0386623422E+00  7.5633648072E+00  3.7099019982E-02  3.6261282064E-02  3.9125558577E-01
  5.8300000000E+03  2.0408435506E+00  7.5599148862E+00  3.7195812315E-02  3.6354360066E-02  3.9147429560E-01
  5.8350000000E+03  2.0430252199E+00  7.5564694943E+00  3.7292773752E-02  3.6447593658E-02  3.9169278320E-01
  5.8400000000E+03  2.0452073497E+00  7.5530286216E+00  3.7389904444E-02  3.6540982952E-02  3.9191104912E-01
  5.8450000000E+03  2.0473899398E+00  7.5495922585E+00  3.7487204540E-02  3.6634528058E-02  3.9212909387E-01
  5.8500000000E+03  2.0495729898E+00  7.5461603951E+00  3.7584674190E-02  3.6728229088E-02  3.9234691800E-01
  5.8550000000E+03  2.0517564995E+00  7.5427330217E+00  3.7682313544E-02  3.6822086152E-02  3.9256452199E-01
  5.8600000000E+03  2.0539404686E+00  7.5393101286E+00  3.7780122752E-02  3.6916099361E-02  3.9278190644E-01
  5.8650000000E+03  2.0561247234E+00  7.5358917061E+00  3.7878101963E-02  3.7010268769E-02  3.9299907194E-01
  5.8700000000E+03  2.0583093706E+00  7.5325373285E+00  3.7976251327E-02  3.7104595967E-02  3.9321601910E-01
  5.8750000000E+03  2.0604944760E+00  7.5291979837E+00  3.8074570995E-02  3.7199079917E-02  3.9343274852E-01
  5.8800000000E+03  2.0626800393E+00  7.5258629583E+00  3.8173061115E-02  3.7293720471E-02  3.9364926079E-01
  5.8850000000E+03  2.0648660602E+00  7.5225322430E+00  3.8271721838E-02  3.7388517739E-02  3.9386555651E-01
  5.8900000000E+03  2.0670525384E+00  7.5192058284E+00  3.8370553314E-02  3.7483471833E-02  3.9408163627E-01
  5.8950000000E+03  2.0692394735E+00  7.5158837055E+00  3.8469555692E-02  3.7578582861E-02  3.9429750065E-01
  5.9000000000E+03  2.0714268654E+00  7.5125658651E+00  3.8568729122E-02  3.7673850935E-02  3.9451315025E-01
  5.9050000000E+03  2.0736147137E+00  7.5092522980E+00  3.8668073755E-02  3.7769276164E-02  3.9472858565E-01
  5.9100000000E+03  2.0758030181E+00  7.5059429951E+00  3.8767589739E-02  3.7864858659E-02  3.9494380743E-01
  5.9150000000E+03  2.0779917783E+00  7.5026379473E+00  3.8867277225E-02  3.7960598530E-02  3.9515881618E-01
  5.9200000000E+03  2.0801826700E+00  7.4993371455E+00  3.8967136363E-02  3.8056496447E-02  3.9537361247E-01
  5.9250000000E+03  2.0823742564E+00  7.4960405808E+00  3.9067167302E-02  3.8152552042E-02  3.9558819687E-01
  5.9300000000E+03  2.0845663001E+00  7.4927482441E+00  3.9167370192E-02  3.8248765347E-02  3.9580256996E-01
  5.9350000000E+03  2.0867588010E+00  7.4894601264E+00  3.9267745184E-02  3.8345136472E-02  3.9601673231E-01
  5.9400000000E+03  2.0889517586E+00  7.4861762188E+00  3.9368292426E-02  3.8441665525E-02  3.9623068449E-01
  5.9450000000E+03  2.0911451728E+00  7.4828965123E+00  3.9469012070E-02  3.8538352616E-02  3.9644442707E-01
  5.9500000000E+03  2.0933390431E+00  7.4796209981E+00  3.9569904264E-02  3.8635197855E-02  3.9665796061E-01
  5.9550000000E+03  2.0955333694E+00  7.4763496672E+00  3.9670969159E-02  3.8732201352E-02  3.9687128567E-01
  5.9600000000E+03  2.0977281514E+00  7.4730825109E+00  3.9772206905E-02  3.8829363214E-02  3.9708440282E-01
  5.9650000000E+03  2.0999233886E+00  7.4698844415E+00  3.9873617651E-02  3.8926685315E-02  3.9729731261E-01
  5.9700000000E+03  2.1021190810E+00  7.4666930042E+00  3.9975201547E-02  3.9024166089E-02  3.9751001560E-01
  5.9750000000E+03  2.1043150843E+00  7.4635056004E+00  4.0076958744E-02  3.9121805525E-02  3.9772251235E-01
  5.9800000000E+03  2.1065115311E+00  7.4603222217E+00  4.0178889390E-02  3.9219603779E-02  3.9793480340E-01
  5.9850000000E+03  2.1087084319E+00  7.4571428597E+00  4.0280993637E-02  3.9317560962E-02  3.9814688930E-01
  5.9900000000E+03  2.1109057864E+00  7.4539675060E+00  4.0383271633E-02  3.9415677184E-02  3.9835877061E-01
  5.9950000000E+03  2.1131035943E+00  7.4507961521E+00  4.0485723529E-02  3.9513952554E-02  3.9857044786E-01
  6.0000000000E+03  2.1153018554E+00  7.4476287897E+00  4.0588349475E-02  3.9612387179E-02  3.9878192161E-01
  6.0050000000E+03  2.1175005694E+00  7.4444654104E+00  4.0691847222E-02  3.9711645568E-02  3.9899319239E-01
  6.0100000000E+03  2.1196997360E+00  7.4413060060E+00  4.0795522290E-02  3.9811066144E-02  3.9920426074E-01
  6.0150000000E+03  2.1218993549E+00  7.4381505681E+00  4.0899374837E-02  3.9910649021E-02  3.9941512721E-01
  6.0200000000E+03  2.1240994258E+00  7.4349990885E+00  4.1003405018E-02  4.0010394312E-02  3.9962579232E-01
  6.0250000000E+03  2.1262999484E+00  7.4318515588E+00  4.1107612988E-02  4.0110302130E-02  3.9983625661E-01
  6.0300000000E+03  2.1285096061E+00  7.4287079710E+00  4.1211998903E-02  4.0210375686E-02  4.0004652062E-01
  6.0350000000E+03  2.1307209107E+00  7.4255683168E+00  4.1316562919E-02  4.0310612440E-02  4.0025658486E-01
  6.0400000000E+03  2.1329326785E+00  7.4224325879E+00  4.1421305191E-02  4.0411012084E-02  4.0046644988E-01
  6.0450000000E+03  2.1351449091E+00  7.4193007764E+00  4.1526225874E-02  4.0511574729E-02  4.0067611619E-01
  6.0500000000E+03  2.1373576023E+00  7.4161728739E+00  4.1631325125E-02  4.0612300489E-02  4.0088558432E-01
  6.0550000000E+03  2.1395707578E+00  7.4130488726E+00  4.1736603099E-02  4.0713189476E-02  4.0109485479E-01
  6.0600000000E+03  2.1417843753E+00  7.4099787010E+00  4.1842059952E-02  4.0814243316E-02  4.0130392813E-01
  6.0650000000E+03  2.1439984545E+00  7.4069271116E+00  4.1947695839E-02  4.0915461075E-02  4.0151280484E-01
  6.0700000000E+03  2.1462129952E+00  7.4038792921E+00  4.2053510916E-02  4.1016842416E-02  4.0172148544E-01
  6.0750000000E+03  2.1484279970E+00  7.4008352348E+00  4.2159505338E-02  4.1118387452E-02  4.0192997046E-01
  6.0800000000E+03  2.1506434597E+00  7.3977949317E+00  4.2265679262E-02  4.1220096296E-02  4.0213826040E-01
  6.0850000000E+03  2.1529069645E+00  7.3947583754E+00  4.2372032842E-02  4.1321986588E-02  4.0234635577E-01
  6.0900000000E+03  2.1551885997E+00  7.3917255580E+00  4.2478566235E-02  4.1424047539E-02  4.0255425708E-01
  6.0950000000E+03  2.1574707775E+00  7.3886964719E+00  4.2585279596E-02  4.1526272802E-02  4.0276196484E-01
  6.1000000000E+03  2.1597534975E+00  7.3856711094E+00  4.2692173082E-02  4.1628662487E-02  4.0296947955E-01
  6.1050000000E+03  2.1620367595E+00  7.3826494630E+00  4.2799246846E-02  4.1731216709E-02  4.0317680172E-01
  6.1100000000E+03  2.1643205631E+00  7.3796315250E+00  4.2906501046E-02  4.1833935578E-02  4.0338393185E-01
  6.1150000000E+03  2.1666049081E+00  7.3766172878E+00  4.3013935837E-02  4.1936819207E-02  4.0359087043E-01
  6.1200000000E+03  2.1688897941E+00  7.3736067440E+00  4.3121551375E-02  4.2039867708E-02  4.0379761797E-01
  6.1250000000E+03  2.1711752207E+00  7.3705998859E+00  4.3229347815E-02  4.2143081194E-02  4.0400417496E-01
  6.1300000000E+03  2.1734611878E+00  7.3675967060E+00  4.3337325313E-02  4.2246459775E-02  4.0421054190E-01
  6.1350000000E+03  2.1757476949E+00  7.3645971968E+00  4.3445484026E-02  4.2350003564E-02  4.0441671927E-01
  6.1400000000E+03  2.1780346881E+00  7.3616013509E+00  4.3553824107E-02  4.2453712653E-02  4.0462270758E-01
  6.1450000000E+03  2.1803221616E+00  7.3586091609E+00  4.3662345714E-02  4.2557587149E-02  4.0482850729E-01
  6.1500000000E+03  2.1826101741E+00  7.3556206192E+00  4.3771049002E-02  4.2661627188E-02  4.0503411892E-01
  6.1550000000E+03  2.1848987252E+00  7.3526525945E+00  4.3879934127E-02  4.2765833452E-02  4.0523954293E-01
  6.1600000000E+03  2.1871878147E+00  7.3497332298E+00  4.3989001245E-02  4.2870207020E-02  4.0544477982E-01
  6.1650000000E+03  2.1894774423E+00  7.3468173915E+00  4.4098250510E-02  4.2974746485E-02  4.0564983006E-01
  6.1700000000E+03  2.1917676076E+00  7.3439050724E+00  4.4207682080E-02  4.3079451958E-02  4.0585469415E-01
  6.1750000000E+03  2.1940583104E+00  7.3409962655E+00  4.4317296110E-02  4.3184323551E-02  4.0605937261E-01
  6.1800000000E+03  2.1963495503E+00  7.3380909636E+00  4.4427092755E-02  4.3289361375E-02  4.0626386598E-01
  6.1850000000E+03  2.1986413270E+00  7.3351891598E+00  4.4537072172E-02  4.3394565542E-02  4.0646817481E-01
  6.1900000000E+03  2.2009336402E+00  7.3322908470E+00  4.4647234516E-02  4.3499936161E-02  4.0667229963E-01
  6.1950000000E+03  2.2032264799E+00  7.3293960182E+00  4.4757579943E-02  4.3605473340E-02  4.0687624098E-01
  6.2000000000E+03  2.2055197828E+00  7.3265046664E+00  4.4868108609E-02  4.3711177166E-02  4.0707999939E-01
  6.2050000000E+03  2.2078136212E+00  7.3236167846E+00  4.4978820669E-02  4.3817047777E-02  4.0728357539E-01
  6.2100000000E+03  2.2101079948E+00  7.3207323659E+00  4.5089716280E-02  4.3923085284E-02  4.0748696951E-01
  6.2150000000E+03  2.2124029032E+00  7.3178514033E+00  4.5200795597E-02  4.4029289798E-02  4.0769018227E-01
  6.2200000000E+03  2.2146983462E+00  7.3149738899E+00  4.5312058776E-02  4.4135661429E-02  4.0789321422E-01
  6.2250000000E+03  2.2169943235E+00  7.3120998188E+00  4.5423505973E-02  4.4242200287E-02  4.0809606585E-01
  6.2300000000E+03  2.2192908347E+00  7.3092291832E+00  4.5535137344E-02  4.4348906484E-02  4.0829873771E-01
  6.2350000000E+03  2.2215878796E+00  7.3063619761E+00  4.5646953045E-02  4.4455780129E-02  4.0850123031E-01
  6.2400000000E+03  2.2238854578E+00  7.3034981908E+00  4.5758953231E-02  4.4562821332E-02  4.0870354416E-01
  6.2450000000E+03  2.2261835691E+00  7.3006378204E+00  4.5871138058E-02  4.4670030203E-02  4.0890567978E-01
  6.2500000000E+03  2.2284822131E+00  7.2977808581E+00  4.5983507683E-02  4.4777406853E-02  4.0910763768E-01
  6.2550000000E+03  2.2307816997E+00  7.2949545201E+00  4.6096062260E-02  4.4884952547E-02  4.0930941839E-01
  6.2600000000E+03  2.2330818830E+00  7.2921635558E+00  4.6208801947E-02  4.4992667536E-02  4.0951102239E-01
  6.2650000000E+03  2.2353825988E+00  7.2893758864E+00  4.6321726898E-02  4.5100550655E-02  4.0971245022E-01
  6.2700000000E+03  2.2376838467E+00  7.2865915052E+00  4.6434837270E-02  4.5208602016E-02  4.0991370236E-01
  6.2750000000E+03  2.2399856264E+00  7.2838104059E+00  4.6548133219E-02  4.5316821726E-02  4.1011477933E-01
  6.2800000000E+03  2.2422879377E+00  7.2810325820E+00  4.6661614900E-02  4.5425209896E-02  4.1031568163E-01
  6.2850000000E+03  2.2445907801E+00  7.2782580269E+00  4.6775282470E-02  4.5533766636E-02  4.1051640975E-01
  6.2900000000E+03  2.2468941535E+00  7.2754867342E+00  4.6889136084E-02  4.5642492055E-02  4.1071696420E-01
  6.2950000000E+03  2.2491980576E+00  7.2727186975E+00  4.7003175898E-02  4.5751386262E-02  4.1091734547E-01
  6.3000000000E+03  2.2515024919E+00  7.2699539105E+00  4.7117402068E-02  4.5860449366E-02  4.1111755407E-01
  6.3050000000E+03  2.2538074563E+00  7.2671923666E+00  4.7231814751E-02  4.5969681477E-02  4.1131759047E-01
  6.3100000000E+03  2.2561128772E+00  7.2644340596E+00  4.7346414101E-02  4.6079082673E-02  4.1151745518E-01
  6.3150000000E+03  2.2584180489E+00  7.2616789831E+00  4.7461200276E-02  4.6188652768E-02  4.1171714868E-01
  6.3200000000E+03  2.2607237488E+00  7.2589271308E+00  4.7576173430E-02  4.6298392194E-02  4.1191667147E-01
  6.3250000000E+03  2.2630299764E+00  7.2561784962E+00  4.7691333721E-02  4.6408301061E-02  4.1211602402E-01
  6.3300000000E+03  2.2653367315E+00  7.2534330732E+00  4.7806681303E-02  4.6518379476E-02  4.1231520683E-01
  6.3350000000E+03  2.2676440137E+00  7.2506908555E+00  4.7922216333E-02  4.6628627549E-02  4.1251422037E-01
  6.3400000000E+03  2.2699518229E+00  7.2479518367E+00  4.8037938966E-02  4.6739045387E-02  4.1271306513E-01
  6.3450000000E+03  2.2722601586E+00  7.2452160106E+00  4.8153849360E-02  4.6849633101E-02  4.1291174158E-01
  6.3500000000E+03  2.2745690206E+00  7.2424833710E+00  4.8269947669E-02  4.6960390797E-02  4.1311025021E-01
