#[MATERIAL DEFINITION FOR MC-GPU: interaction mean free path and sampling data from PENELOPE 2018]
#[MATERIAL NAME]
# blood                                                         
#[NOMINAL DENSITY (g/cm^3)]
#   1.06000000
#[NUMBER OF DATA VALUES]
#  23002
#[MEAN FREE PATHS (cm) (ie, average distance between interactions)]
#[Energy (eV)     | Rayleigh        | Compton         | Photoelectric   | TOTAL (+pair prod) (cm) | Rayleigh: max cumul prob F^2]
  5.0000000000E+03  1.6893341907E+00  8.1050684411E+00  2.3207323863E-02  2.2828353415E-02  3.4736428957E-01
  5.0050000000E+03  1.6913371026E+00  8.0999193306E+00  2.3277340533E-02  2.2896425078E-02  3.4762588733E-01
  5.0100000000E+03  1.6933403858E+00  8.0947786278E+00  2.3347498000E-02  2.2964629369E-02  3.4788717770E-01
  5.0150000000E+03  1.6953455558E+00  8.0896463106E+00  2.3417796405E-02  2.3032966682E-02  3.4814816132E-01
  5.0200000000E+03  1.6973520048E+00  8.0845223570E+00  2.3488235888E-02  2.3101437022E-02  3.4840883882E-01
  5.0250000000E+03  1.6993588275E+00  8.0794067450E+00  2.3558816592E-02  2.3170040338E-02  3.4866921084E-01
  5.0300000000E+03  1.7013660235E+00  8.0742994528E+00  2.3629538658E-02  2.3238776743E-02  3.4892927801E-01
  5.0350000000E+03  1.7033735925E+00  8.0692004587E+00  2.3700402228E-02  2.3307646351E-02  3.4918904098E-01
  5.0400000000E+03  1.7053815343E+00  8.0641097408E+00  2.3771407443E-02  2.3376649278E-02  3.4944850036E-01
  5.0450000000E+03  1.7073898485E+00  8.0590272777E+00  2.3842554444E-02  2.3445785637E-02  3.4970765680E-01
  5.0500000000E+03  1.7093985348E+00  8.0539530476E+00  2.3913843372E-02  2.3515055542E-02  3.4996651090E-01
  5.0550000000E+03  1.7114075929E+00  8.0488870293E+00  2.3985274371E-02  2.3584459107E-02  3.5022506330E-01
  5.0600000000E+03  1.7134171634E+00  8.0438292012E+00  2.4056847580E-02  2.3653996473E-02  3.5048331462E-01
  5.0650000000E+03  1.7154273671E+00  8.0387795420E+00  2.4128563141E-02  2.3723667777E-02  3.5074126548E-01
  5.0700000000E+03  1.7174379422E+00  8.0337380306E+00  2.4200421196E-02  2.3793473083E-02  3.5099891649E-01
  5.0750000000E+03  1.7194488885E+00  8.0287046458E+00  2.4272421887E-02  2.3863412506E-02  3.5125626828E-01
  5.0800000000E+03  1.7214602057E+00  8.0236793664E+00  2.4344565354E-02  2.3933486158E-02  3.5151332146E-01
  5.0850000000E+03  1.7234718934E+00  8.0187485523E+00  2.4416851739E-02  2.4003694928E-02  3.5177007664E-01
  5.0900000000E+03  1.7254839515E+00  8.0138339852E+00  2.4489281184E-02  2.4074038240E-02  3.5202653443E-01
  5.0950000000E+03  1.7274963796E+00  8.0089272511E+00  2.4561853830E-02  2.4144516133E-02  3.5228269544E-01
  5.1000000000E+03  1.7295091773E+00  8.0040283298E+00  2.4634569819E-02  2.4215128719E-02  3.5253856027E-01
  5.1050000000E+03  1.7315223445E+00  7.9991372011E+00  2.4707429291E-02  2.4285876113E-02  3.5279412954E-01
  5.1100000000E+03  1.7335365912E+00  7.9942538451E+00  2.4780432390E-02  2.4356758568E-02  3.5304940384E-01
  5.1150000000E+03  1.7355512149E+00  7.9893782419E+00  2.4853579255E-02  2.4427776060E-02  3.5330438377E-01
  5.1200000000E+03  1.7375662080E+00  7.9845103715E+00  2.4926870028E-02  2.4498928701E-02  3.5355906993E-01
  5.1250000000E+03  1.7395815704E+00  7.9796502143E+00  2.5000304851E-02  2.4570216603E-02  3.5381346292E-01
  5.1300000000E+03  1.7415973016E+00  7.9747977503E+00  2.5073883866E-02  2.4641639879E-02  3.5406756334E-01
  5.1350000000E+03  1.7436134015E+00  7.9699529601E+00  2.5147607213E-02  2.4713198644E-02  3.5432137178E-01
  5.1400000000E+03  1.7456298697E+00  7.9651158240E+00  2.5221475034E-02  2.4784893009E-02  3.5457488882E-01
  5.1450000000E+03  1.7476467059E+00  7.9602863224E+00  2.5295487472E-02  2.4856723088E-02  3.5482811507E-01
  5.1500000000E+03  1.7496639099E+00  7.9554644360E+00  2.5369644666E-02  2.4928688993E-02  3.5508105110E-01
  5.1550000000E+03  1.7516818518E+00  7.9506501453E+00  2.5443946759E-02  2.5000790912E-02  3.5533369750E-01
  5.1600000000E+03  1.7537004745E+00  7.9458434311E+00  2.5518393892E-02  2.5073028948E-02  3.5558605490E-01
  5.1650000000E+03  1.7557194651E+00  7.9410950474E+00  2.5592986206E-02  2.5145403658E-02  3.5583812414E-01
  5.1700000000E+03  1.7577388231E+00  7.9363949427E+00  2.5667723843E-02  2.5217915064E-02  3.5608990593E-01
  5.1750000000E+03  1.7597585484E+00  7.9317021592E+00  2.5742606945E-02  2.5290562872E-02  3.5634140096E-01
  5.1800000000E+03  1.7617786405E+00  7.9270166784E+00  2.5817635652E-02  2.5363347194E-02  3.5659260993E-01
  5.1850000000E+03  1.7637990993E+00  7.9223384819E+00  2.5892810107E-02  2.5436268142E-02  3.5684353352E-01
  5.1900000000E+03  1.7658199244E+00  7.9176675514E+00  2.5968130450E-02  2.5509325828E-02  3.5709417241E-01
  5.1950000000E+03  1.7678411156E+00  7.9130038686E+00  2.6043596824E-02  2.5582520364E-02  3.5734452729E-01
  5.2000000000E+03  1.7698626775E+00  7.9083474154E+00  2.6119209369E-02  2.5655851865E-02  3.5759459882E-01
  5.2050000000E+03  1.7718852215E+00  7.9036981735E+00  2.6194968227E-02  2.5729320571E-02  3.5784438770E-01
  5.2100000000E+03  1.7739081315E+00  7.8990561249E+00  2.6270873540E-02  2.5802926465E-02  3.5809389458E-01
  5.2150000000E+03  1.7759314072E+00  7.8944212517E+00  2.6346925449E-02  2.5876669658E-02  3.5834312014E-01
  5.2200000000E+03  1.7779550483E+00  7.8897935357E+00  2.6423124095E-02  2.5950550264E-02  3.5859206506E-01
  5.2250000000E+03  1.7799790547E+00  7.8851729592E+00  2.6499469620E-02  2.6024568394E-02  3.5884072998E-01
  5.2300000000E+03  1.7820034259E+00  7.8805595042E+00  2.6575962165E-02  2.6098724159E-02  3.5908911558E-01
  5.2350000000E+03  1.7840281617E+00  7.8759531532E+00  2.6652601871E-02  2.6173017671E-02  3.5933722252E-01
  5.2400000000E+03  1.7860532618E+00  7.8713538882E+00  2.6729388881E-02  2.6247449042E-02  3.5958505145E-01
  5.2450000000E+03  1.7880787260E+00  7.8667616917E+00  2.6806323336E-02  2.6322018384E-02  3.5983260304E-01
  5.2500000000E+03  1.7901053626E+00  7.8622592140E+00  2.6883405376E-02  2.6396726915E-02  3.6007987793E-01
  5.2550000000E+03  1.7921336509E+00  7.8577695349E+00  2.6960635144E-02  2.6471574000E-02  3.6032687677E-01
  5.2600000000E+03  1.7941623051E+00  7.8532866858E+00  2.7038012781E-02  2.6546559405E-02  3.6057360022E-01
  5.2650000000E+03  1.7961913251E+00  7.8488106497E+00  2.7115538428E-02  2.6621683242E-02  3.6082004891E-01
  5.2700000000E+03  1.7982207103E+00  7.8443414099E+00  2.7193212226E-02  2.6696945621E-02  3.6106622350E-01
  5.2750000000E+03  1.8002504607E+00  7.8398789496E+00  2.7271034318E-02  2.6772346654E-02  3.6131212462E-01
  5.2800000000E+03  1.8022805759E+00  7.8354232521E+00  2.7349004845E-02  2.6847886452E-02  3.6155775292E-01
  5.2850000000E+03  1.8043110556E+00  7.8309743007E+00  2.7427123947E-02  2.6923565126E-02  3.6180310903E-01
  5.2900000000E+03  1.8063418996E+00  7.8265320789E+00  2.7505391767E-02  2.6999382787E-02  3.6204819358E-01
  5.2950000000E+03  1.8083731076E+00  7.8220965702E+00  2.7583808446E-02  2.7075339546E-02  3.6229300721E-01
  5.3000000000E+03  1.8104049151E+00  7.8176677581E+00  2.7662374125E-02  2.7151435568E-02  3.6253755054E-01
  5.3050000000E+03  1.8124372006E+00  7.8132456261E+00  2.7741088946E-02  2.7227670935E-02  3.6278182421E-01
  5.3100000000E+03  1.8144698496E+00  7.8088301579E+00  2.7819953050E-02  2.7304045733E-02  3.6302582884E-01
  5.3150000000E+03  1.8165028620E+00  7.8044213373E+00  2.7898966579E-02  2.7380560073E-02  3.6326956506E-01
  5.3200000000E+03  1.8185362374E+00  7.8000191479E+00  2.7978129674E-02  2.7457214066E-02  3.6351303347E-01
  5.3250000000E+03  1.8205699756E+00  7.7956235736E+00  2.8057442476E-02  2.7534007821E-02  3.6375623471E-01
  5.3300000000E+03  1.8226040763E+00  7.7912384029E+00  2.8136905127E-02  2.7610941498E-02  3.6399916939E-01
  5.3350000000E+03  1.8246385392E+00  7.7869417031E+00  2.8216517768E-02  2.7688016194E-02  3.6424183811E-01
  5.3400000000E+03  1.8266733640E+00  7.7826513944E+00  2.8296280541E-02  2.7765230996E-02  3.6448424151E-01
  5.3450000000E+03  1.8287085504E+00  7.7783674616E+00  2.8376193587E-02  2.7842586015E-02  3.6472638018E-01
  5.3500000000E+03  1.8307436031E+00  7.7740898890E+00  2.8456257047E-02  2.7920081245E-02  3.6496825473E-01
  5.3550000000E+03  1.8327789435E+00  7.7698186614E+00  2.8536471064E-02  2.7997716895E-02  3.6520986576E-01
  5.3600000000E+03  1.8348146440E+00  7.7655537634E+00  2.8616835778E-02  2.8075493090E-02  3.6545121389E-01
  5.3650000000E+03  1.8368507044E+00  7.7612951797E+00  2.8697351330E-02  2.8153409942E-02  3.6569229971E-01
  5.3700000000E+03  1.8388871243E+00  7.7570428952E+00  2.8778017863E-02  2.8231467560E-02  3.6593312382E-01
  5.3750000000E+03  1.8409239035E+00  7.7527968946E+00  2.8858835517E-02  2.8309666053E-02  3.6617368682E-01
  5.3800000000E+03  1.8429610417E+00  7.7485571629E+00  2.8939804435E-02  2.8388005532E-02  3.6641398931E-01
  5.3850000000E+03  1.8449985387E+00  7.7443236849E+00  2.9020924757E-02  2.8466486107E-02  3.6665403187E-01
  5.3900000000E+03  1.8470363942E+00  7.7400964457E+00  2.9102196624E-02  2.8545107886E-02  3.6689381509E-01
  5.3950000000E+03  1.8490746079E+00  7.7358754303E+00  2.9183620179E-02  2.8623870980E-02  3.6713333957E-01
  5.4000000000E+03  1.8511140411E+00  7.7316606238E+00  2.9265195563E-02  2.8702775705E-02  3.6737260589E-01
  5.4050000000E+03  1.8531538525E+00  7.7274520112E+00  2.9346922917E-02  2.8781821971E-02  3.6761161464E-01
  5.4100000000E+03  1.8551940224E+00  7.7232495778E+00  2.9428802382E-02  2.8861009880E-02  3.6785036640E-01
  5.4150000000E+03  1.8572345506E+00  7.7190533089E+00  2.9510834100E-02  2.8940339544E-02  3.6808886174E-01
  5.4200000000E+03  1.8592754368E+00  7.7149364744E+00  2.9593018212E-02  2.9019812108E-02  3.6832710126E-01
  5.4250000000E+03  1.8613166808E+00  7.7108352435E+00  2.9675354860E-02  2.9099426792E-02  3.6856508551E-01
  5.4300000000E+03  1.8633582821E+00  7.7067399679E+00  2.9757844186E-02  2.9179183571E-02  3.6880281509E-01
  5.4350000000E+03  1.8654002407E+00  7.7026506335E+00  2.9840486329E-02  2.9259082553E-02  3.6904029055E-01
  5.4400000000E+03  1.8674425562E+00  7.6985672264E+00  2.9923281433E-02  2.9339123848E-02  3.6927751248E-01
  5.4450000000E+03  1.8694852284E+00  7.6944897324E+00  3.0006229638E-02  2.9419307564E-02  3.6951448144E-01
  5.4500000000E+03  1.8716049696E+00  7.6904181376E+00  3.0089331085E-02  2.9499652869E-02  3.6975119799E-01
  5.4550000000E+03  1.8737256305E+00  7.6863524280E+00  3.0172585917E-02  2.9580141078E-02  3.6998766270E-01
  5.4600000000E+03  1.8758467481E+00  7.6822925898E+00  3.0255994274E-02  2.9660772183E-02  3.7022387614E-01
  5.4650000000E+03  1.8779683221E+00  7.6782386091E+00  3.0339556298E-02  2.9741546296E-02  3.7045983886E-01
  5.4700000000E+03  1.8800903521E+00  7.6741904722E+00  3.0423272131E-02  2.9822463524E-02  3.7069555142E-01
  5.4750000000E+03  1.8822128378E+00  7.6701481652E+00  3.0507141913E-02  2.9903523978E-02  3.7093101438E-01
  5.4800000000E+03  1.8843357789E+00  7.6661116744E+00  3.0591165786E-02  2.9984727766E-02  3.7116622830E-01
  5.4850000000E+03  1.8864591751E+00  7.6620809863E+00  3.0675343892E-02  3.0066074997E-02  3.7140119373E-01
  5.4900000000E+03  1.8885830260E+00  7.6580560871E+00  3.0759676371E-02  3.0147565780E-02  3.7163591121E-01
  5.4950000000E+03  1.8907073314E+00  7.6540369633E+00  3.0844163366E-02  3.0229200225E-02  3.7187038130E-01
  5.5000000000E+03  1.8928361615E+00  7.6500236013E+00  3.0928805018E-02  3.0310979483E-02  3.7210460455E-01
  5.5050000000E+03  1.8949658146E+00  7.6460518277E+00  3.1014036808E-02  3.0393321377E-02  3.7233858150E-01
  5.5100000000E+03  1.8970959272E+00  7.6421299751E+00  3.1099425552E-02  3.0475809846E-02  3.7257231269E-01
  5.5150000000E+03  1.8992264989E+00  7.6382136886E+00  3.1184971394E-02  3.0558444305E-02  3.7280579868E-01
  5.5200000000E+03  1.9013575294E+00  7.6343029553E+00  3.1270674480E-02  3.0641224867E-02  3.7303904019E-01
  5.5250000000E+03  1.9034890183E+00  7.6303977623E+00  3.1356534956E-02  3.0724151643E-02  3.7327203791E-01
  5.5300000000E+03  1.9056209654E+00  7.6264980967E+00  3.1442552968E-02  3.0807224745E-02  3.7350479248E-01
  5.5350000000E+03  1.9077533704E+00  7.6226039457E+00  3.1528728660E-02  3.0890444286E-02  3.7373730456E-01
  5.5400000000E+03  1.9098862328E+00  7.6187152966E+00  3.1615062178E-02  3.0973810376E-02  3.7396957479E-01
  5.5450000000E+03  1.9120195525E+00  7.6148321367E+00  3.1701553668E-02  3.1057323128E-02  3.7420160381E-01
  5.5500000000E+03  1.9141530215E+00  7.6109544532E+00  3.1788203276E-02  3.1140982572E-02  3.7443339225E-01
  5.5550000000E+03  1.9162868431E+00  7.6070822334E+00  3.1875011146E-02  3.1224788872E-02  3.7466494076E-01
  5.5600000000E+03  1.9184211204E+00  7.6032154649E+00  3.1961977425E-02  3.1308742168E-02  3.7489624995E-01
  5.5650000000E+03  1.9205558531E+00  7.5993541350E+00  3.2049102258E-02  3.1392842570E-02  3.7512732048E-01
  5.5700000000E+03  1.9226910409E+00  7.5954982311E+00  3.2136385791E-02  3.1477090190E-02  3.7535815295E-01
  5.5750000000E+03  1.9248266834E+00  7.5916477409E+00  3.2223828169E-02  3.1561485139E-02  3.7558874801E-01
  5.5800000000E+03  1.9269627805E+00  7.5878026519E+00  3.2311429537E-02  3.1646027529E-02  3.7581910627E-01
  5.5850000000E+03  1.9290993317E+00  7.5839629516E+00  3.2399190042E-02  3.1730717470E-02  3.7604922835E-01
  5.5900000000E+03  1.9312363367E+00  7.5801286277E+00  3.2487109828E-02  3.1815555073E-02  3.7627911488E-01
  5.5950000000E+03  1.9333737953E+00  7.5763558961E+00  3.2575189042E-02  3.1900541447E-02  3.7650876646E-01
  5.6000000000E+03  1.9355119093E+00  7.5726092058E+00  3.2663427828E-02  3.1985676141E-02  3.7673818372E-01
  5.6050000000E+03  1.9376506922E+00  7.5688677096E+00  3.2751826333E-02  3.2070958905E-02  3.7696736725E-01
  5.6100000000E+03  1.9397899282E+00  7.5651313956E+00  3.2840384702E-02  3.2156389790E-02  3.7719631769E-01
  5.6150000000E+03  1.9419296171E+00  7.5614002522E+00  3.2929103081E-02  3.2241968907E-02  3.7742503562E-01
  5.6200000000E+03  1.9440697585E+00  7.5576742675E+00  3.3017981614E-02  3.2327696367E-02  3.7765352166E-01
  5.6250000000E+03  1.9462103522E+00  7.5539534299E+00  3.3107020449E-02  3.2413572280E-02  3.7788177640E-01
  5.6300000000E+03  1.9483513979E+00  7.5502377276E+00  3.3196219729E-02  3.2499596757E-02  3.7810980045E-01
  5.6350000000E+03  1.9504928951E+00  7.5465271491E+00  3.3285579601E-02  3.2585769909E-02  3.7833759441E-01
  5.6400000000E+03  1.9526348437E+00  7.5428216827E+00  3.3375100211E-02  3.2672091844E-02  3.7856515886E-01
  5.6450000000E+03  1.9547772433E+00  7.5391213168E+00  3.3464781704E-02  3.2758562675E-02  3.7879249441E-01
  5.6500000000E+03  1.9569202336E+00  7.5354260400E+00  3.3554624225E-02  3.2845182550E-02  3.7901960164E-01
  5.6550000000E+03  1.9590646458E+00  7.5317358407E+00  3.3644627920E-02  3.2931951815E-02  3.7924648115E-01
  5.6600000000E+03  1.9612095097E+00  7.5280507075E+00  3.3734792935E-02  3.3018870307E-02  3.7947313352E-01
  5.6650000000E+03  1.9633548247E+00  7.5243706290E+00  3.3825119415E-02  3.3105938137E-02  3.7969955932E-01
  5.6700000000E+03  1.9655005908E+00  7.5206955937E+00  3.3915607506E-02  3.3193155414E-02  3.7992575916E-01
  5.6750000000E+03  1.9676468075E+00  7.5170255904E+00  3.4006257353E-02  3.3280522248E-02  3.8015173360E-01
  5.6800000000E+03  1.9697934745E+00  7.5133606076E+00  3.4097069102E-02  3.3368038750E-02  3.8037748323E-01
  5.6850000000E+03  1.9719405916E+00  7.5097544504E+00  3.4188042898E-02  3.3455706095E-02  3.8060300862E-01
  5.6900000000E+03  1.9740881584E+00  7.5061733625E+00  3.4279178888E-02  3.3543523742E-02  3.8082831034E-01
  5.6950000000E+03  1.9762361746E+00  7.5025971255E+00  3.4370477216E-02  3.3631491399E-02  3.8105338896E-01
  5.7000000000E+03  1.9783846400E+00  7.4990257285E+00  3.4461938029E-02  3.3719609178E-02  3.8127824506E-01
  5.7050000000E+03  1.9805336595E+00  7.4954591608E+00  3.4553561471E-02  3.3807877217E-02  3.8150287921E-01
  5.7100000000E+03  1.9826831791E+00  7.4918974116E+00  3.4645347689E-02  3.3896295611E-02  3.8172729196E-01
  5.7150000000E+03  1.9848331471E+00  7.4883404701E+00  3.4737296828E-02  3.3984864455E-02  3.8195148388E-01
  5.7200000000E+03  1.9869835632E+00  7.4847883258E+00  3.4829409033E-02  3.4073583858E-02  3.8217545553E-01
  5.7250000000E+03  1.9891344272E+00  7.4812409679E+00  3.4921684451E-02  3.4162453928E-02  3.8239920747E-01
  5.7300000000E+03  1.9912857388E+00  7.4776983858E+00  3.5014123226E-02  3.4251474775E-02  3.8262274026E-01
  5.7350000000E+03  1.9934374976E+00  7.4741605690E+00  3.5106725505E-02  3.4340646507E-02  3.8284605445E-01
  5.7400000000E+03  1.9955897033E+00  7.4706275068E+00  3.5199491432E-02  3.4429969235E-02  3.8306915059E-01
  5.7450000000E+03  1.9977423558E+00  7.4670991888E+00  3.5292421154E-02  3.4519443066E-02  3.8329202924E-01
  5.7500000000E+03  1.9998954545E+00  7.4635756045E+00  3.5385514816E-02  3.4609068109E-02  3.8351469095E-01
  5.7550000000E+03  2.0020490565E+00  7.4600567433E+00  3.5478772564E-02  3.4698844491E-02  3.8373713626E-01
  5.7600000000E+03  2.0042035238E+00  7.4565425949E+00  3.5572194543E-02  3.4788772428E-02  3.8395936572E-01
  5.7650000000E+03  2.0063584373E+00  7.4530331489E+00  3.5665780899E-02  3.4878851905E-02  3.8418137986E-01
  5.7700000000E+03  2.0085137965E+00  7.4495283950E+00  3.5759531778E-02  3.4969083030E-02  3.8440317924E-01
  5.7750000000E+03  2.0106696011E+00  7.4460592335E+00  3.5853447325E-02  3.5059466596E-02  3.8462476439E-01
  5.7800000000E+03  2.0128258510E+00  7.4426348414E+00  3.5947527685E-02  3.5150002929E-02  3.8484613584E-01
  5.7850000000E+03  2.0149825459E+00  7.4392149832E+00  3.6041773005E-02  3.5240691251E-02  3.8506729414E-01
  5.7900000000E+03  2.0171396853E+00  7.4357996488E+00  3.6136183429E-02  3.5331531671E-02  3.8528823981E-01
  5.7950000000E+03  2.0192972690E+00  7.4323888284E+00  3.6230759104E-02  3.5422524296E-02  3.8550897339E-01
  5.8000000000E+03  2.0214552968E+00  7.4289825122E+00  3.6325500175E-02  3.5513669235E-02  3.8572949541E-01
  5.8050000000E+03  2.0236137683E+00  7.4255806903E+00  3.6420406788E-02  3.5604966595E-02  3.8594980639E-01
  5.8100000000E+03  2.0257736618E+00  7.4221833530E+00  3.6515479088E-02  3.5696416788E-02  3.8616990686E-01
  5.8150000000E+03  2.0279350949E+00  7.4187904905E+00  3.6610717221E-02  3.5788019963E-02  3.8638979734E-01
  5.8200000000E+03  2.0300969735E+00  7.4154020930E+00  3.6706121333E-02  3.5879775887E-02  3.8660947836E-01
  5.8250000000E+03  2.0322592974E+00  7.4120181508E+00  3.6801691569E-02  3.5971684669E-02  3.8682895044E-01
  5.8300000000E+03  2.0344220662E+00  7.4086386543E+00  3.6897428074E-02  3.6063746416E-02  3.8704821409E-01
  5.8350000000E+03  2.0365852796E+00  7.4052635939E+00  3.6993330995E-02  3.6155961236E-02  3.8726726984E-01
  5.8400000000E+03  2.0387489373E+00  7.4018929598E+00  3.7089400477E-02  3.6248329236E-02  3.8748611819E-01
  5.8450000000E+03  2.0409130391E+00  7.3985267425E+00  3.7185636665E-02  3.6340850524E-02  3.8770475966E-01
  5.8500000000E+03  2.0430775847E+00  7.3951649326E+00  3.7282039706E-02  3.6433525206E-02  3.8792319475E-01
  5.8550000000E+03  2.0452425737E+00  7.3918075203E+00  3.7378609745E-02  3.6526353392E-02  3.8814142390E-01
  5.8600000000E+03  2.0474080059E+00  7.3884544962E+00  3.7475346927E-02  3.6619335186E-02  3.8835944768E-01
  5.8650000000E+03  2.0495742712E+00  7.3851058510E+00  3.7572251398E-02  3.6712470822E-02  3.8857726666E-01
  5.8700000000E+03  2.0517411283E+00  7.3818194484E+00  3.7669323303E-02  3.6805761770E-02  3.8879488140E-01
  5.8750000000E+03  2.0539084284E+00  7.3785476836E+00  3.7766562790E-02  3.6899206923E-02  3.8901229248E-01
  5.8800000000E+03  2.0560761713E+00  7.3752801503E+00  3.7863970002E-02  3.6992806132E-02  3.8922950047E-01
  5.8850000000E+03  2.0582443566E+00  7.3720168395E+00  3.7961545085E-02  3.7086559504E-02  3.8944650593E-01
  5.8900000000E+03  2.0604129840E+00  7.3687577421E+00  3.8059288186E-02  3.7180467146E-02  3.8966330944E-01
  5.8950000000E+03  2.0625820533E+00  7.3655028492E+00  3.8157199449E-02  3.7274529164E-02  3.8987991154E-01
  5.9000000000E+03  2.0647515642E+00  7.3622521518E+00  3.8255279022E-02  3.7368745665E-02  3.9009631280E-01
  5.9050000000E+03  2.0669215164E+00  7.3590056409E+00  3.8353527048E-02  3.7463116755E-02  3.9031251377E-01
  5.9100000000E+03  2.0690919096E+00  7.3557633075E+00  3.8451943673E-02  3.7557642542E-02  3.9052851503E-01
  5.9150000000E+03  2.0712627435E+00  7.3525251428E+00  3.8550529045E-02  3.7652323131E-02  3.9074431710E-01
  5.9200000000E+03  2.0734354429E+00  7.3492911380E+00  3.8649283307E-02  3.7747159101E-02  3.9095992056E-01
  5.9250000000E+03  2.0756087860E+00  7.3460612840E+00  3.8748206606E-02  3.7842150157E-02  3.9117532594E-01
  5.9300000000E+03  2.0777825711E+00  7.3428355722E+00  3.8847299086E-02  3.7937296337E-02  3.9139053380E-01
  5.9350000000E+03  2.0799567978E+00  7.3396139937E+00  3.8946560895E-02  3.8032597749E-02  3.9160554467E-01
  5.9400000000E+03  2.0821314659E+00  7.3363965397E+00  3.9045992178E-02  3.8128054498E-02  3.9182035912E-01
  5.9450000000E+03  2.0843065750E+00  7.3331832016E+00  3.9145593079E-02  3.8223666690E-02  3.9203497766E-01
  5.9500000000E+03  2.0864821249E+00  7.3299739706E+00  3.9245363746E-02  3.8319434430E-02  3.9224940085E-01
  5.9550000000E+03  2.0886581153E+00  7.3267688379E+00  3.9345304322E-02  3.8415357826E-02  3.9246362922E-01
  5.9600000000E+03  2.0908345459E+00  7.3235677950E+00  3.9445414955E-02  3.8511436981E-02  3.9267766331E-01
  5.9650000000E+03  2.0930114165E+00  7.3204338603E+00  3.9545695790E-02  3.8607673756E-02  3.9289150365E-01
  5.9700000000E+03  2.0951887267E+00  7.3173064010E+00  3.9646146972E-02  3.8704066590E-02  3.9310515077E-01
  5.9750000000E+03  2.0973665805E+00  7.3141828944E+00  3.9746768647E-02  3.8800615555E-02  3.9331860520E-01
  5.9800000000E+03  2.0995448814E+00  7.3110633322E+00  3.9847560960E-02  3.8897320724E-02  3.9353186747E-01
  5.9850000000E+03  2.1017236213E+00  7.3079477060E+00  3.9948524058E-02  3.8994182199E-02  3.9374493810E-01
  5.9900000000E+03  2.1039027999E+00  7.3048360077E+00  4.0049658086E-02  3.9091200086E-02  3.9395781762E-01
  5.9950000000E+03  2.1060824168E+00  7.3017282290E+00  4.0150963189E-02  3.9188374490E-02  3.9417050655E-01
  6.0000000000E+03  2.1082624719E+00  7.2986243617E+00  4.0252439514E-02  3.9285705516E-02  3.9438300541E-01
  6.0050000000E+03  2.1104429648E+00  7.2955243977E+00  4.0354796221E-02  3.9383868579E-02  3.9459531472E-01
  6.0100000000E+03  2.1126238953E+00  7.2924283288E+00  4.0457327462E-02  3.9482191232E-02  3.9480743500E-01
  6.0150000000E+03  2.1148052631E+00  7.2893361468E+00  4.0560033389E-02  3.9580673586E-02  3.9501936675E-01
  6.0200000000E+03  2.1169870679E+00  7.2862478437E+00  4.0662914153E-02  3.9679315750E-02  3.9523111049E-01
  6.0250000000E+03  2.1191693095E+00  7.2831634113E+00  4.0765969906E-02  3.9778117834E-02  3.9544266674E-01
  6.0300000000E+03  2.1213601623E+00  7.2800828417E+00  4.0869200798E-02  3.9877082835E-02  3.9565403599E-01
  6.0350000000E+03  2.1235525768E+00  7.2770061268E+00  4.0972606982E-02  3.9976208389E-02  3.9586521877E-01
  6.0400000000E+03  2.1257454387E+00  7.2739332585E+00  4.1076188608E-02  4.0075494214E-02  3.9607621556E-01
  6.0450000000E+03  2.1279387477E+00  7.2708642290E+00  4.1179945829E-02  4.0174940417E-02  3.9628702689E-01
  6.0500000000E+03  2.1301325035E+00  7.2677990301E+00  4.1283878795E-02  4.0274547108E-02  3.9649765324E-01
  6.0550000000E+03  2.1323267058E+00  7.2647376540E+00  4.1387987658E-02  4.0374314396E-02  3.9670809512E-01
  6.0600000000E+03  2.1345213544E+00  7.2617285413E+00  4.1492272569E-02  4.0474243894E-02  3.9691835302E-01
  6.0650000000E+03  2.1367164490E+00  7.2587374949E+00  4.1596733681E-02  4.0574334670E-02  3.9712842745E-01
  6.0700000000E+03  2.1389119892E+00  7.2557501438E+00  4.1701371143E-02  4.0674586388E-02  3.9733831889E-01
  6.0750000000E+03  2.1411079749E+00  7.2527664803E+00  4.1806185109E-02  4.0774999157E-02  3.9754802784E-01
  6.0800000000E+03  2.1433044057E+00  7.2497864969E+00  4.1911175729E-02  4.0875573085E-02  3.9775755480E-01
  6.0850000000E+03  2.1455454474E+00  7.2468101860E+00  4.2016343154E-02  4.0976324391E-02  3.9796690024E-01
  6.0900000000E+03  2.1478033347E+00  7.2438375401E+00  4.2121687537E-02  4.1077243164E-02  3.9817606467E-01
  6.0950000000E+03  2.1500617421E+00  7.2408685517E+00  4.2227209028E-02  4.1178323576E-02  3.9838504855E-01
  6.1000000000E+03  2.1523206695E+00  7.2379032133E+00  4.2332907779E-02  4.1279565735E-02  3.9859385239E-01
  6.1050000000E+03  2.1545801164E+00  7.2349415174E+00  4.2438783942E-02  4.1380969750E-02  3.9880247665E-01
  6.1100000000E+03  2.1568400826E+00  7.2319834565E+00  4.2544837668E-02  4.1482535730E-02  3.9901092183E-01
  6.1150000000E+03  2.1591005677E+00  7.2290290233E+00  4.2651069108E-02  4.1584263783E-02  3.9921918840E-01
  6.1200000000E+03  2.1613615714E+00  7.2260782103E+00  4.2757478415E-02  4.1686154019E-02  3.9942727684E-01
  6.1250000000E+03  2.1636230936E+00  7.2231310101E+00  4.2864065739E-02  4.1788206544E-02  3.9963518762E-01
  6.1300000000E+03  2.1658851337E+00  7.2201874154E+00  4.2970831232E-02  4.1890421468E-02  3.9984292123E-01
  6.1350000000E+03  2.1681476916E+00  7.2172474187E+00  4.3077775045E-02  4.1992798898E-02  4.0005047812E-01
  6.1400000000E+03  2.1704108138E+00  7.2143110129E+00  4.3184897331E-02  4.2095338962E-02  4.0025785878E-01
  6.1450000000E+03  2.1726745049E+00  7.2113781906E+00  4.3292198240E-02  4.2198041767E-02  4.0046506367E-01
  6.1500000000E+03  2.1749387130E+00  7.2084489444E+00  4.3399677924E-02  4.2300907404E-02  4.0067209326E-01
  6.1550000000E+03  2.1772034376E+00  7.2055396272E+00  4.3507336534E-02  4.2403936547E-02  4.0087894802E-01
  6.1600000000E+03  2.1794686787E+00  7.2026775211E+00  4.3615174223E-02  4.2507130263E-02  4.0108562841E-01
  6.1650000000E+03  2.1817344358E+00  7.1998188727E+00  4.3723191141E-02  4.2610487154E-02  4.0129213490E-01
  6.1700000000E+03  2.1840007086E+00  7.1969636750E+00  4.3831387440E-02  4.2714007328E-02  4.0149846807E-01
  6.1750000000E+03  2.1862674969E+00  7.1941119211E+00  4.3939763272E-02  4.2817690892E-02  4.0170462849E-01
  6.1800000000E+03  2.1885348003E+00  7.1912636039E+00  4.4048318788E-02  4.2921537954E-02  4.0191061667E-01
  6.1850000000E+03  2.1908026185E+00  7.1884187166E+00  4.4157054140E-02  4.3025548622E-02  4.0211643311E-01
  6.1900000000E+03  2.1930709513E+00  7.1855772523E+00  4.4265969479E-02  4.3129723003E-02  4.0232207833E-01
  6.1950000000E+03  2.1953397808E+00  7.1827392041E+00  4.4375064957E-02  4.3234061197E-02  4.0252755281E-01
  6.2000000000E+03  2.1976089929E+00  7.1799045651E+00  4.4484340725E-02  4.3338563267E-02  4.0273285706E-01
  6.2050000000E+03  2.1998787184E+00  7.1770733286E+00  4.4593796935E-02  4.3443229372E-02  4.0293799158E-01
  6.2100000000E+03  2.2021489571E+00  7.1742454876E+00  4.4703433739E-02  4.3548059618E-02  4.0314295686E-01
  6.2150000000E+03  2.2044197086E+00  7.1714210354E+00  4.4813251287E-02  4.3653054112E-02  4.0334775340E-01
  6.2200000000E+03  2.2066909727E+00  7.1685999652E+00  4.4923249733E-02  4.3758212962E-02  4.0355238169E-01
  6.2250000000E+03  2.2089627491E+00  7.1657822703E+00  4.5033429226E-02  4.3863536274E-02  4.0375684223E-01
  6.2300000000E+03  2.2112350375E+00  7.1629679438E+00  4.5143789919E-02  4.3969024155E-02  4.0396113549E-01
  6.2350000000E+03  2.2135078375E+00  7.1601569791E+00  4.5254331963E-02  4.4074676711E-02  4.0416526198E-01
  6.2400000000E+03  2.2157811490E+00  7.1573493695E+00  4.5365055510E-02  4.4180494049E-02  4.0436922217E-01
  6.2450000000E+03  2.2180549715E+00  7.1545451082E+00  4.5475960712E-02  4.4286476276E-02  4.0457301655E-01
  6.2500000000E+03  2.2203293048E+00  7.1517441886E+00  4.5587047720E-02  4.4392623498E-02  4.0477664561E-01
  6.2550000000E+03  2.2226049577E+00  7.1489729725E+00  4.5698316685E-02  4.4498937167E-02  4.0498010982E-01
  6.2600000000E+03  2.2248815502E+00  7.1462360601E+00  4.5809767760E-02  4.4605417436E-02  4.0518340966E-01
  6.2650000000E+03  2.2271586541E+00  7.1435023793E+00  4.5921401095E-02  4.4712063043E-02  4.0538654561E-01
  6.2700000000E+03  2.2294362692E+00  7.1407719239E+00  4.6033216843E-02  4.4818874095E-02  4.0558951815E-01
  6.2750000000E+03  2.2317143952E+00  7.1380446874E+00  4.6145215155E-02  4.4925850698E-02  4.0579232775E-01
  6.2800000000E+03  2.2339930317E+00  7.1353206635E+00  4.6257396183E-02  4.5032992957E-02  4.0599497488E-01
  6.2850000000E+03  2.2362721785E+00  7.1325998459E+00  4.6369760078E-02  4.5140300979E-02  4.0619746002E-01
  6.2900000000E+03  2.2385518354E+00  7.1298822282E+00  4.6482306992E-02  4.5247774869E-02  4.0639978362E-01
  6.2950000000E+03  2.2408320019E+00  7.1271678041E+00  4.6595037076E-02  4.5355414734E-02  4.0660194618E-01
  6.3000000000E+03  2.2431126779E+00  7.1244565673E+00  4.6707950483E-02  4.5463220678E-02  4.0680394813E-01
  6.3050000000E+03  2.2453938629E+00  7.1217485116E+00  4.6821047363E-02  4.5571192808E-02  4.0700578996E-01
  6.3100000000E+03  2.2476755533E+00  7.1190436308E+00  4.6934327869E-02  4.5679331228E-02  4.0720747213E-01
  6.3150000000E+03  2.2499577148E+00  7.1163419185E+00  4.7047792151E-02  4.5787636028E-02  4.0740899509E-01
  6.3200000000E+03  2.2522403845E+00  7.1136433686E+00  4.7161440363E-02  4.5896107330E-02  4.0761035931E-01
  6.3250000000E+03  2.2545235621E+00  7.1109479749E+00  4.7275272655E-02  4.6004745239E-02  4.0781156524E-01
  6.3300000000E+03  2.2568072473E+00  7.1082557311E+00  4.7389289178E-02  4.6113549859E-02  4.0801261335E-01
  6.3350000000E+03  2.2590914399E+00  7.1055666312E+00  4.7503490086E-02  4.6222521297E-02  4.0821350408E-01
  6.3400000000E+03  2.2613761395E+00  7.1028806690E+00  4.7617875529E-02  4.6331659657E-02  4.0841423789E-01
  6.3450000000E+03  2.2636613459E+00  7.1001978383E+00  4.7732445658E-02  4.6440965044E-02  4.0861481523E-01
  6.3500000000E+03  2.2659470587E+00  7.0975181331E+00  4.7847200627E-02  4.6550437562E-02  4.0881523656E-01
