#[MATERIAL DEFINITION FOR MC-GPU: interaction mean free path and sampling data from PENELOPE 2018]
#[MATERIAL NAME]
# sternum                                                       
#[NOMINAL DENSITY (g/cm^3)]
#   1.07600000
#[NUMBER OF DATA VALUES]
#  23002
#[MEAN FREE PATHS (cm) (ie, average distance between interactions)]
#[Energy (eV)     | Rayleigh        | Compton         | Photoelectric   | TOTAL (+pair prod) (cm) | Rayleigh: max cumul prob F^2]
  5.0000000000E+03  1.8087489339E+00  7.5908179828E+00  1.9581307289E-02  1.9322282642E-02  3.2165562348E-01
  5.0050000000E+03  1.8107273118E+00  7.5868671274E+00  1.9637902364E-02  1.9377589272E-02  3.2191022332E-01
  5.0100000000E+03  1.8127058750E+00  7.5829222701E+00  1.9694603359E-02  1.9432996643E-02  3.2216459796E-01
  5.0150000000E+03  1.8146853446E+00  7.5789833960E+00  1.9751410362E-02  1.9488504912E-02  3.2241874796E-01
  5.0200000000E+03  1.8166654311E+00  7.5750504899E+00  1.9808323463E-02  1.9544114119E-02  3.2267267389E-01
  5.0250000000E+03  1.8186457037E+00  7.5711235370E+00  1.9865342752E-02  1.9599824288E-02  3.2292637628E-01
  5.0300000000E+03  1.8206261623E+00  7.5672025223E+00  1.9922468318E-02  1.9655635493E-02  3.2317985570E-01
  5.0350000000E+03  1.8226068067E+00  7.5632874308E+00  1.9979700251E-02  1.9711547807E-02  3.2343311270E-01
  5.0400000000E+03  1.8245876367E+00  7.5593782479E+00  2.0037038640E-02  1.9767561303E-02  3.2368614782E-01
  5.0450000000E+03  1.8265686522E+00  7.5554749588E+00  2.0094483574E-02  1.9823676055E-02  3.2393896161E-01
  5.0500000000E+03  1.8285498529E+00  7.5515775486E+00  2.0152035144E-02  1.9879892136E-02  3.2419155462E-01
  5.0550000000E+03  1.8305312388E+00  7.5476860029E+00  2.0209693437E-02  1.9936209618E-02  3.2444392739E-01
  5.0600000000E+03  1.8325192004E+00  7.5438003069E+00  2.0267458545E-02  1.9992629336E-02  3.2469608046E-01
  5.0650000000E+03  1.8345192300E+00  7.5399204460E+00  2.0325330555E-02  2.0049152026E-02  3.2494801437E-01
  5.0700000000E+03  1.8365194658E+00  7.5360464059E+00  2.0383309558E-02  2.0105776354E-02  3.2519972966E-01
  5.0750000000E+03  1.8385199077E+00  7.5321781720E+00  2.0441395643E-02  2.0162502395E-02  3.2545122687E-01
  5.0800000000E+03  1.8405205554E+00  7.5283157299E+00  2.0499588898E-02  2.0219330219E-02  3.2570250654E-01
  5.0850000000E+03  1.8425214088E+00  7.5245206542E+00  2.0557889414E-02  2.0276260349E-02  3.2595356919E-01
  5.0900000000E+03  1.8445224678E+00  7.5207371909E+00  2.0616297279E-02  2.0333292457E-02  3.2620441536E-01
  5.0950000000E+03  1.8465237321E+00  7.5169593418E+00  2.0674812583E-02  2.0390426573E-02  3.2645504557E-01
  5.1000000000E+03  1.8485252015E+00  7.5131870933E+00  2.0733435414E-02  2.0447662770E-02  3.2670546037E-01
  5.1050000000E+03  1.8505268758E+00  7.5094204315E+00  2.0792165863E-02  2.0505001122E-02  3.2695566027E-01
  5.1100000000E+03  1.8525330646E+00  7.5056593428E+00  2.0851004018E-02  2.0562442231E-02  3.2720564579E-01
  5.1150000000E+03  1.8545395067E+00  7.5019038133E+00  2.0909949969E-02  2.0619985648E-02  3.2745541747E-01
  5.1200000000E+03  1.8565461584E+00  7.4981538294E+00  2.0969003804E-02  2.0677631441E-02  3.2770497582E-01
  5.1250000000E+03  1.8585530194E+00  7.4944093777E+00  2.1028165613E-02  2.0735379683E-02  3.2795432137E-01
  5.1300000000E+03  1.8605600897E+00  7.4906704445E+00  2.1087435484E-02  2.0793230446E-02  3.2820345463E-01
  5.1350000000E+03  1.8625673690E+00  7.4869370162E+00  2.1146813508E-02  2.0851183802E-02  3.2845237613E-01
  5.1400000000E+03  1.8645748572E+00  7.4832090796E+00  2.1206299772E-02  2.0909239823E-02  3.2870108630E-01
  5.1450000000E+03  1.8665825540E+00  7.4794866211E+00  2.1265894366E-02  2.0967398582E-02  3.2894958545E-01
  5.1500000000E+03  1.8685904593E+00  7.4757696275E+00  2.1325597380E-02  2.1025660151E-02  3.2919787412E-01
  5.1550000000E+03  1.8705998079E+00  7.4720580853E+00  2.1385408901E-02  2.1084024759E-02  3.2944595285E-01
  5.1600000000E+03  1.8726104104E+00  7.4683519813E+00  2.1445329019E-02  2.1142492455E-02  3.2969382222E-01
  5.1650000000E+03  1.8746212235E+00  7.4646874437E+00  2.1505357824E-02  2.1201063472E-02  3.2994148279E-01
  5.1700000000E+03  1.8766322471E+00  7.4610573289E+00  2.1565495403E-02  2.1259737829E-02  3.3018893510E-01
  5.1750000000E+03  1.8786434809E+00  7.4574324859E+00  2.1625741846E-02  2.1318515364E-02  3.3043617970E-01
  5.1800000000E+03  1.8806549248E+00  7.4538129021E+00  2.1686097241E-02  2.1377396149E-02  3.3068321716E-01
  5.1850000000E+03  1.8826665786E+00  7.4501985646E+00  2.1746561679E-02  2.1436380257E-02  3.3093004803E-01
  5.1900000000E+03  1.8846784421E+00  7.4465894609E+00  2.1807135247E-02  2.1495467758E-02  3.3117667284E-01
  5.1950000000E+03  1.8866905152E+00  7.4429855783E+00  2.1867818034E-02  2.1554658726E-02  3.3142309215E-01
  5.2000000000E+03  1.8887028069E+00  7.4393869043E+00  2.1928610130E-02  2.1613953232E-02  3.3166930650E-01
  5.2050000000E+03  1.8907164539E+00  7.4357934263E+00  2.1989511622E-02  2.1673351498E-02  3.3191531643E-01
  5.2100000000E+03  1.8927303112E+00  7.4322051319E+00  2.2050522601E-02  2.1732853447E-02  3.3216112249E-01
  5.2150000000E+03  1.8947443788E+00  7.4286220087E+00  2.2111643154E-02  2.1792459148E-02  3.3240672522E-01
  5.2200000000E+03  1.8967586563E+00  7.4250440441E+00  2.2172873371E-02  2.1852168675E-02  3.3265212514E-01
  5.2250000000E+03  1.8987731437E+00  7.4214712259E+00  2.2234213339E-02  2.1911982098E-02  3.3289732281E-01
  5.2300000000E+03  1.9007878406E+00  7.4179035418E+00  2.2295663149E-02  2.1971899490E-02  3.3314231875E-01
  5.2350000000E+03  1.9028027471E+00  7.4143409795E+00  2.2357222888E-02  2.2031920920E-02  3.3338711349E-01
  5.2400000000E+03  1.9048178628E+00  7.4107835267E+00  2.2418892646E-02  2.2092046461E-02  3.3363170757E-01
  5.2450000000E+03  1.9068331876E+00  7.4072311712E+00  2.2480715738E-02  2.2152318158E-02  3.3387610152E-01
  5.2500000000E+03  1.9088513411E+00  7.4037426464E+00  2.2542831625E-02  2.2212872280E-02  3.3412029586E-01
  5.2550000000E+03  1.9108738758E+00  7.4002633042E+00  2.2605058946E-02  2.2273532429E-02  3.3436429111E-01
  5.2600000000E+03  1.9128966270E+00  7.3967889036E+00  2.2667397792E-02  2.2334298078E-02  3.3460808781E-01
  5.2650000000E+03  1.9149195945E+00  7.3933194330E+00  2.2729848254E-02  2.2395169302E-02  3.3485168648E-01
  5.2700000000E+03  1.9169427781E+00  7.3898548808E+00  2.2792410422E-02  2.2456146173E-02  3.3509508763E-01
  5.2750000000E+03  1.9189661776E+00  7.3863952352E+00  2.2855084389E-02  2.2517228765E-02  3.3533829179E-01
  5.2800000000E+03  1.9209897928E+00  7.3829404847E+00  2.2917870245E-02  2.2578417151E-02  3.3558129947E-01
  5.2850000000E+03  1.9230136236E+00  7.3794906178E+00  2.2980768082E-02  2.2639711404E-02  3.3582411119E-01
  5.2900000000E+03  1.9250376697E+00  7.3760456230E+00  2.3043777991E-02  2.2701111598E-02  3.3606672746E-01
  5.2950000000E+03  1.9270619310E+00  7.3726054887E+00  2.3106900062E-02  2.2762617804E-02  3.3630914881E-01
  5.3000000000E+03  1.9290952348E+00  7.3691702035E+00  2.3170134388E-02  2.2824231333E-02  3.3655137572E-01
  5.3050000000E+03  1.9311330357E+00  7.3657397560E+00  2.3233481059E-02  2.2885951631E-02  3.3679340873E-01
  5.3100000000E+03  1.9331710666E+00  7.3623141350E+00  2.3296940166E-02  2.2947778175E-02  3.3703524833E-01
  5.3150000000E+03  1.9352093271E+00  7.3588933289E+00  2.3360511800E-02  2.3009711039E-02  3.3727689503E-01
  5.3200000000E+03  1.9372478171E+00  7.3554773266E+00  2.3424196053E-02  2.3071750295E-02  3.3751834934E-01
  5.3250000000E+03  1.9392865364E+00  7.3520661168E+00  2.3487993015E-02  2.3133896016E-02  3.3775961176E-01
  5.3300000000E+03  1.9413254847E+00  7.3486623868E+00  2.3551902778E-02  2.3196148302E-02  3.3800068279E-01
  5.3350000000E+03  1.9433646620E+00  7.3453215126E+00  2.3615925432E-02  2.3258507781E-02  3.3824156294E-01
  5.3400000000E+03  1.9454040680E+00  7.3419852847E+00  2.3680061068E-02  2.3320973950E-02  3.3848225269E-01
  5.3450000000E+03  1.9474437025E+00  7.3386536924E+00  2.3744309778E-02  2.3383546882E-02  3.3872275256E-01
  5.3500000000E+03  1.9494869612E+00  7.3353267248E+00  2.3808671653E-02  2.3446227140E-02  3.3896306302E-01
  5.3550000000E+03  1.9515309507E+00  7.3320043712E+00  2.3873146783E-02  2.3509014381E-02  3.3920318459E-01
  5.3600000000E+03  1.9535751728E+00  7.3286866210E+00  2.3937735259E-02  2.3571908607E-02  3.3944311775E-01
  5.3650000000E+03  1.9556196271E+00  7.3253734634E+00  2.4002437172E-02  2.3634909889E-02  3.3968286299E-01
  5.3700000000E+03  1.9576643135E+00  7.3220648879E+00  2.4067252614E-02  2.3698018301E-02  3.3992242080E-01
  5.3750000000E+03  1.9597092318E+00  7.3187608838E+00  2.4132181674E-02  2.3761233914E-02  3.4016179167E-01
  5.3800000000E+03  1.9617543818E+00  7.3154614406E+00  2.4197224444E-02  2.3824556801E-02  3.4040097609E-01
  5.3850000000E+03  1.9637997634E+00  7.3121665477E+00  2.4262381015E-02  2.3887987034E-02  3.4063997454E-01
  5.3900000000E+03  1.9658453763E+00  7.3088761947E+00  2.4327651478E-02  2.3951524685E-02  3.4087878751E-01
  5.3950000000E+03  1.9678912204E+00  7.3055903711E+00  2.4393035922E-02  2.4015169827E-02  3.4111741548E-01
  5.4000000000E+03  1.9699374248E+00  7.3023090665E+00  2.4458534440E-02  2.4078922550E-02  3.4135585893E-01
  5.4050000000E+03  1.9719838630E+00  7.2990322705E+00  2.4524147122E-02  2.4142782908E-02  3.4159411834E-01
  5.4100000000E+03  1.9740305320E+00  7.2957599728E+00  2.4589874059E-02  2.4206750972E-02  3.4183219418E-01
  5.4150000000E+03  1.9760774316E+00  7.2924921629E+00  2.4655715341E-02  2.4270826815E-02  3.4207008695E-01
  5.4200000000E+03  1.9781245615E+00  7.2892807113E+00  2.4721671059E-02  2.4335011086E-02  3.4230779710E-01
  5.4250000000E+03  1.9801719216E+00  7.2860804404E+00  2.4787741305E-02  2.4399303361E-02  3.4254532512E-01
  5.4300000000E+03  1.9822195117E+00  7.2828845208E+00  2.4853926167E-02  2.4463703637E-02  3.4278267147E-01
  5.4350000000E+03  1.9842673316E+00  7.2796929425E+00  2.4920225738E-02  2.4528211986E-02  3.4301983664E-01
  5.4400000000E+03  1.9863153811E+00  7.2765056958E+00  2.4986640109E-02  2.4592828478E-02  3.4325682108E-01
  5.4450000000E+03  1.9883636600E+00  7.2733227708E+00  2.5053169368E-02  2.4657553186E-02  3.4349362527E-01
  5.4500000000E+03  1.9904637771E+00  7.2701441575E+00  2.5119813608E-02  2.4722394142E-02  3.4373024967E-01
  5.4550000000E+03  1.9925644951E+00  7.2669698463E+00  2.5186572919E-02  2.4787343566E-02  3.4396669475E-01
  5.4600000000E+03  1.9946655025E+00  7.2637998274E+00  2.5253447392E-02  2.4852401479E-02  3.4420296098E-01
  5.4650000000E+03  1.9967667992E+00  7.2606340911E+00  2.5320437116E-02  2.4917567955E-02  3.4443904882E-01
  5.4700000000E+03  1.9988683848E+00  7.2574726276E+00  2.5387542183E-02  2.4982843065E-02  3.4467495872E-01
  5.4750000000E+03  2.0009702591E+00  7.2543154273E+00  2.5454762684E-02  2.5048226879E-02  3.4491069116E-01
  5.4800000000E+03  2.0030724220E+00  7.2511624805E+00  2.5522098708E-02  2.5113719471E-02  3.4514624658E-01
  5.4850000000E+03  2.0051748732E+00  7.2480137778E+00  2.5589550346E-02  2.5179320910E-02  3.4538162545E-01
  5.4900000000E+03  2.0072776124E+00  7.2448693094E+00  2.5657117690E-02  2.5245031269E-02  3.4561682823E-01
  5.4950000000E+03  2.0093806395E+00  7.2417290658E+00  2.5724800828E-02  2.5310850619E-02  3.4585185536E-01
  5.5000000000E+03  2.0114856352E+00  7.2385930376E+00  2.5792599853E-02  2.5376779298E-02  3.4608670730E-01
  5.5050000000E+03  2.0135910707E+00  7.2354865294E+00  2.5860835379E-02  2.5443127705E-02  3.4632138452E-01
  5.5100000000E+03  2.0156967954E+00  7.2324154342E+00  2.5929188356E-02  2.5509587011E-02  3.4655588744E-01
  5.5150000000E+03  2.0178028093E+00  7.2293484263E+00  2.5997658876E-02  2.5576156905E-02  3.4679021654E-01
  5.5200000000E+03  2.0199091121E+00  7.2262854965E+00  2.6066247032E-02  2.5642837459E-02  3.4702437225E-01
  5.5250000000E+03  2.0220157036E+00  7.2232266359E+00  2.6134952917E-02  2.5709628748E-02  3.4725835502E-01
  5.5300000000E+03  2.0241225835E+00  7.2201718352E+00  2.6203776623E-02  2.5776530844E-02  3.4749216531E-01
  5.5350000000E+03  2.0262297517E+00  7.2171210855E+00  2.6272718244E-02  2.5843543820E-02  3.4772580355E-01
  5.5400000000E+03  2.0283372079E+00  7.2140743777E+00  2.6341777872E-02  2.5910667750E-02  3.4795927018E-01
  5.5450000000E+03  2.0304449518E+00  7.2110317029E+00  2.6410955601E-02  2.5977902705E-02  3.4819256566E-01
  5.5500000000E+03  2.0325586337E+00  7.2079930520E+00  2.6480251523E-02  2.6045249687E-02  3.4842569042E-01
  5.5550000000E+03  2.0346745143E+00  7.2049584161E+00  2.6549665731E-02  2.6112708162E-02  3.4865864491E-01
  5.5600000000E+03  2.0367906909E+00  7.2019277863E+00  2.6619198317E-02  2.6180277889E-02  3.4889142955E-01
  5.5650000000E+03  2.0389071633E+00  7.1989011537E+00  2.6688849375E-02  2.6247958944E-02  3.4912404480E-01
  5.5700000000E+03  2.0410239313E+00  7.1958785095E+00  2.6758618997E-02  2.6315751397E-02  3.4935649108E-01
  5.5750000000E+03  2.0431409946E+00  7.1928598449E+00  2.6828507276E-02  2.6383655322E-02  3.4958876883E-01
  5.5800000000E+03  2.0452583530E+00  7.1898451509E+00  2.6898514304E-02  2.6451670792E-02  3.4982087849E-01
  5.5850000000E+03  2.0473760063E+00  7.1868344190E+00  2.6968640175E-02  2.6519797878E-02  3.5005282049E-01
  5.5900000000E+03  2.0494939544E+00  7.1838276402E+00  2.7038884981E-02  2.6588036653E-02  3.5028459525E-01
  5.5950000000E+03  2.0516121968E+00  7.1808643999E+00  2.7109248815E-02  2.6656387735E-02  3.5051620322E-01
  5.6000000000E+03  2.0537348624E+00  7.1779196721E+00  2.7179731769E-02  2.6724851559E-02  3.5074764482E-01
  5.6050000000E+03  2.0558622314E+00  7.1749787784E+00  2.7250333936E-02  2.6793428050E-02  3.5097892048E-01
  5.6100000000E+03  2.0579899042E+00  7.1720417103E+00  2.7321055409E-02  2.6862116538E-02  3.5121003062E-01
  5.6150000000E+03  2.0601178805E+00  7.1691084594E+00  2.7391896280E-02  2.6930917095E-02  3.5144097568E-01
  5.6200000000E+03  2.0622461602E+00  7.1661790173E+00  2.7462856642E-02  2.6999829793E-02  3.5167175607E-01
  5.6250000000E+03  2.0643747430E+00  7.1632533758E+00  2.7533936588E-02  2.7068854705E-02  3.5190237222E-01
  5.6300000000E+03  2.0665036287E+00  7.1603315266E+00  2.7605136210E-02  2.7137991902E-02  3.5213282464E-01
  5.6350000000E+03  2.0686328170E+00  7.1574134612E+00  2.7676455600E-02  2.7207241456E-02  3.5236311412E-01
  5.6400000000E+03  2.0707623078E+00  7.1544991716E+00  2.7747894851E-02  2.7276603440E-02  3.5259324117E-01
  5.6450000000E+03  2.0728921008E+00  7.1515886495E+00  2.7819454057E-02  2.7346077926E-02  3.5282320626E-01
  5.6500000000E+03  2.0750223405E+00  7.1486818867E+00  2.7891133308E-02  2.7415665010E-02  3.5305300986E-01
  5.6550000000E+03  2.0771538861E+00  7.1457788750E+00  2.7962932698E-02  2.7485364915E-02  3.5328265241E-01
  5.6600000000E+03  2.0792857347E+00  7.1428796062E+00  2.8034852320E-02  2.7555177538E-02  3.5351213438E-01
  5.6650000000E+03  2.0814178858E+00  7.1399840723E+00  2.8106892265E-02  2.7625102952E-02  3.5374145623E-01
  5.6700000000E+03  2.0835503395E+00  7.1370922650E+00  2.8179052626E-02  2.7695141227E-02  3.5397061842E-01
  5.6750000000E+03  2.0856830953E+00  7.1342041765E+00  2.8251333495E-02  2.7765292435E-02  3.5419962140E-01
  5.6800000000E+03  2.0878161531E+00  7.1313197985E+00  2.8323734966E-02  2.7835556649E-02  3.5442846562E-01
  5.6850000000E+03  2.0899495127E+00  7.1284768883E+00  2.8396257130E-02  2.7905934517E-02  3.5465715154E-01
  5.6900000000E+03  2.0920831738E+00  7.1256517650E+00  2.8468900080E-02  2.7976425758E-02  3.5488567961E-01
  5.6950000000E+03  2.0942171363E+00  7.1228302412E+00  2.8541663909E-02  2.8047030225E-02  3.5511405027E-01
  5.7000000000E+03  2.0963513998E+00  7.1200123093E+00  2.8614548707E-02  2.8117747991E-02  3.5534226399E-01
  5.7050000000E+03  2.0984859031E+00  7.1171979616E+00  2.8687554569E-02  2.8188579117E-02  3.5557032120E-01
  5.7100000000E+03  2.1006206770E+00  7.1143871903E+00  2.8760681586E-02  2.8259523677E-02  3.5579822235E-01
  5.7150000000E+03  2.1027557513E+00  7.1115799878E+00  2.8833929850E-02  2.8330581750E-02  3.5602596789E-01
  5.7200000000E+03  2.1048911257E+00  7.1087763464E+00  2.8907299455E-02  2.8401753407E-02  3.5625355827E-01
  5.7250000000E+03  2.1070268000E+00  7.1059762586E+00  2.8980790492E-02  2.8473038717E-02  3.5648099391E-01
  5.7300000000E+03  2.1091627740E+00  7.1031797167E+00  2.9054403053E-02  2.8544437754E-02  3.5670827527E-01
  5.7350000000E+03  2.1112990474E+00  7.1003867131E+00  2.9128137230E-02  2.8615950587E-02  3.5693540278E-01
  5.7400000000E+03  2.1134356200E+00  7.0975972402E+00  2.9201993117E-02  2.8687577287E-02  3.5716237689E-01
  5.7450000000E+03  2.1155724916E+00  7.0948112907E+00  2.9275970805E-02  2.8759317926E-02  3.5738919802E-01
  5.7500000000E+03  2.1177096621E+00  7.0920288568E+00  2.9350070387E-02  2.8831172573E-02  3.5761586663E-01
  5.7550000000E+03  2.1198474885E+00  7.0892499312E+00  2.9424291954E-02  2.8903141367E-02  3.5784238313E-01
  5.7600000000E+03  2.1219882364E+00  7.0864745064E+00  2.9498635599E-02  2.8975224802E-02  3.5806874797E-01
  5.7650000000E+03  2.1241292859E+00  7.0837025749E+00  2.9573101414E-02  2.9047422461E-02  3.5829496158E-01
  5.7700000000E+03  2.1262706367E+00  7.0809341293E+00  2.9647689491E-02  2.9119734416E-02  3.5852102439E-01
  5.7750000000E+03  2.1284122886E+00  7.0781907738E+00  2.9722399923E-02  2.9192161105E-02  3.5874693683E-01
  5.7800000000E+03  2.1305542415E+00  7.0754789299E+00  2.9797232801E-02  2.9264702715E-02  3.5897269933E-01
  5.7850000000E+03  2.1326964950E+00  7.0727704685E+00  2.9872188217E-02  2.9337358840E-02  3.5919831232E-01
  5.7900000000E+03  2.1348390490E+00  7.0700653824E+00  2.9947266264E-02  2.9410129551E-02  3.5942377622E-01
  5.7950000000E+03  2.1369819032E+00  7.0673636646E+00  3.0022467034E-02  2.9483014919E-02  3.5964909146E-01
  5.8000000000E+03  2.1391250575E+00  7.0646653079E+00  3.0097790619E-02  2.9556015013E-02  3.5987425846E-01
  5.8050000000E+03  2.1412685116E+00  7.0619703053E+00  3.0173237111E-02  2.9629129905E-02  3.6009927765E-01
  5.8100000000E+03  2.1434130415E+00  7.0592786497E+00  3.0248806602E-02  2.9702359813E-02  3.6032414945E-01
  5.8150000000E+03  2.1455587406E+00  7.0565903342E+00  3.0324499184E-02  2.9775704826E-02  3.6054887428E-01
  5.8200000000E+03  2.1477047407E+00  7.0539053516E+00  3.0400314949E-02  2.9849164849E-02  3.6077345256E-01
  5.8250000000E+03  2.1498510416E+00  7.0512236951E+00  3.0476253989E-02  2.9922739952E-02  3.6099788470E-01
  5.8300000000E+03  2.1519976431E+00  7.0485453575E+00  3.0552316395E-02  2.9996430204E-02  3.6122217113E-01
  5.8350000000E+03  2.1541445450E+00  7.0458703320E+00  3.0628502261E-02  3.0070235676E-02  3.6144631227E-01
  5.8400000000E+03  2.1562917471E+00  7.0431986117E+00  3.0704811678E-02  3.0144156438E-02  3.6167030852E-01
  5.8450000000E+03  2.1584392491E+00  7.0405301897E+00  3.0781244738E-02  3.0218192559E-02  3.6189416030E-01
  5.8500000000E+03  2.1605870509E+00  7.0378650589E+00  3.0857801533E-02  3.0292344109E-02  3.6211786803E-01
  5.8550000000E+03  2.1627351523E+00  7.0352032127E+00  3.0934482154E-02  3.0366611158E-02  3.6234143211E-01
  5.8600000000E+03  2.1648835529E+00  7.0325446441E+00  3.1011286694E-02  3.0440993775E-02  3.6256485296E-01
  5.8650000000E+03  2.1670318267E+00  7.0298893463E+00  3.1088215245E-02  3.0515491945E-02  3.6278813099E-01
  5.8700000000E+03  2.1691802365E+00  7.0272776187E+00  3.1165267898E-02  3.0590106554E-02  3.6301126660E-01
  5.8750000000E+03  2.1713289443E+00  7.0246763127E+00  3.1242444745E-02  3.0664837085E-02  3.6323426021E-01
  5.8800000000E+03  2.1734779498E+00  7.0220781814E+00  3.1319745878E-02  3.0739683470E-02  3.6345711222E-01
  5.8850000000E+03  2.1756272530E+00  7.0194832182E+00  3.1397171390E-02  3.0814645778E-02  3.6367982303E-01
  5.8900000000E+03  2.1777768535E+00  7.0168914165E+00  3.1474721371E-02  3.0889724080E-02  3.6390239305E-01
  5.8950000000E+03  2.1799267512E+00  7.0143027698E+00  3.1552395914E-02  3.0964918444E-02  3.6412482269E-01
  5.9000000000E+03  2.1820769459E+00  7.0117172715E+00  3.1630195110E-02  3.1040228940E-02  3.6434711234E-01
  5.9050000000E+03  2.1842274373E+00  7.0091349153E+00  3.1708119051E-02  3.1115655637E-02  3.6456926241E-01
  5.9100000000E+03  2.1863782253E+00  7.0065556945E+00  3.1786167829E-02  3.1191198604E-02  3.6479127330E-01
  5.9150000000E+03  2.1885293095E+00  7.0039796029E+00  3.1864341536E-02  3.1266857910E-02  3.6501314540E-01
  5.9200000000E+03  2.1906826746E+00  7.0014066338E+00  3.1942640263E-02  3.1342634030E-02  3.6523487912E-01
  5.9250000000E+03  2.1928366188E+00  6.9988367809E+00  3.2021064103E-02  3.1418526688E-02  3.6545647485E-01
  5.9300000000E+03  2.1949908613E+00  6.9962700379E+00  3.2099613146E-02  3.1494535895E-02  3.6567793299E-01
  5.9350000000E+03  2.1971454018E+00  6.9937063983E+00  3.2178287485E-02  3.1570661720E-02  3.6589925393E-01
  5.9400000000E+03  2.1993002401E+00  6.9911458557E+00  3.2257087211E-02  3.1646904232E-02  3.6612043807E-01
  5.9450000000E+03  2.2014553760E+00  6.9885884039E+00  3.2336012415E-02  3.1723263499E-02  3.6634148581E-01
  5.9500000000E+03  2.2036108093E+00  6.9860340364E+00  3.2415063190E-02  3.1799739590E-02  3.6656239752E-01
  5.9550000000E+03  2.2057665398E+00  6.9834827470E+00  3.2494239628E-02  3.1876332575E-02  3.6678317361E-01
  5.9600000000E+03  2.2079225673E+00  6.9809345295E+00  3.2573541819E-02  3.1953042521E-02  3.6700381447E-01
  5.9650000000E+03  2.2100788916E+00  6.9784330979E+00  3.2652969855E-02  3.2029870418E-02  3.6722432048E-01
  5.9700000000E+03  2.2122355124E+00  6.9759363987E+00  3.2732523829E-02  3.2106815458E-02  3.6744469203E-01
  5.9750000000E+03  2.2144048863E+00  6.9734426819E+00  3.2812203831E-02  3.2183880307E-02  3.6766492951E-01
  5.9800000000E+03  2.2165755085E+00  6.9709519412E+00  3.2892009953E-02  3.2261062616E-02  3.6788503331E-01
  5.9850000000E+03  2.2187464415E+00  6.9684641708E+00  3.2971942287E-02  3.2338362257E-02  3.6810500381E-01
  5.9900000000E+03  2.2209176852E+00  6.9659793646E+00  3.3052000923E-02  3.2415779298E-02  3.6832484139E-01
  5.9950000000E+03  2.2230892394E+00  6.9634975166E+00  3.3132185955E-02  3.2493313809E-02  3.6854454645E-01
  6.0000000000E+03  2.2252611038E+00  6.9610186207E+00  3.3212497473E-02  3.2570965856E-02  3.6876411936E-01
  6.0050000000E+03  2.2274332783E+00  6.9585426711E+00  3.3293609846E-02  3.2649383944E-02  3.6898356050E-01
  6.0100000000E+03  2.2296057626E+00  6.9560696618E+00  3.3374851651E-02  3.2727922273E-02  3.6920287026E-01
  6.0150000000E+03  2.2317785565E+00  6.9535995868E+00  3.3456222986E-02  3.2806580916E-02  3.6942204901E-01
  6.0200000000E+03  2.2339516598E+00  6.9511324402E+00  3.3537723946E-02  3.2885359945E-02  3.6964109714E-01
  6.0250000000E+03  2.2361250722E+00  6.9486682162E+00  3.3619354628E-02  3.2964259431E-02  3.6986001502E-01
  6.0300000000E+03  2.2383042294E+00  6.9462069088E+00  3.3701115128E-02  3.3043280631E-02  3.7007880303E-01
  6.0350000000E+03  2.2404844430E+00  6.9437485122E+00  3.3783005542E-02  3.3122422602E-02  3.7029746154E-01
  6.0400000000E+03  2.2426649720E+00  6.9412930206E+00  3.3865025967E-02  3.3201685256E-02  3.7051599093E-01
  6.0450000000E+03  2.2448458162E+00  6.9388404280E+00  3.3947176498E-02  3.3281068664E-02  3.7073439158E-01
  6.0500000000E+03  2.2470269755E+00  6.9363907288E+00  3.4029457233E-02  3.3360572897E-02  3.7095266386E-01
  6.0550000000E+03  2.2492084495E+00  6.9339439170E+00  3.4111868267E-02  3.3440198028E-02  3.7117080814E-01
  6.0600000000E+03  2.2513902381E+00  6.9315335371E+00  3.4194409696E-02  3.3519944912E-02  3.7138882479E-01
  6.0650000000E+03  2.2535723410E+00  6.9291359129E+00  3.4277081617E-02  3.3599813077E-02  3.7160671419E-01
  6.0700000000E+03  2.2557547581E+00  6.9267410927E+00  3.4359884126E-02  3.3679802364E-02  3.7182447670E-01
  6.0750000000E+03  2.2579374892E+00  6.9243490711E+00  3.4442817319E-02  3.3759912843E-02  3.7204211269E-01
  6.0800000000E+03  2.2601205339E+00  6.9219598424E+00  3.4525881293E-02  3.3840144587E-02  3.7225962258E-01
  6.0850000000E+03  2.2623332166E+00  6.9195734011E+00  3.4609076142E-02  3.3920504259E-02  3.7247700711E-01
  6.0900000000E+03  2.2645570978E+00  6.9171897416E+00  3.4692401965E-02  3.4000987828E-02  3.7269426675E-01
  6.0950000000E+03  2.2667813373E+00  6.9148088586E+00  3.4775858856E-02  3.4081592937E-02  3.7291140189E-01
  6.1000000000E+03  2.2690059348E+00  6.9124307463E+00  3.4859446911E-02  3.4162319656E-02  3.7312841289E-01
  6.1050000000E+03  2.2712308902E+00  6.9100553994E+00  3.4943166228E-02  3.4243168056E-02  3.7334530012E-01
  6.1100000000E+03  2.2734562031E+00  6.9076828123E+00  3.5027016902E-02  3.4324138210E-02  3.7356206397E-01
  6.1150000000E+03  2.2756818734E+00  6.9053129797E+00  3.5110999029E-02  3.4405230188E-02  3.7377870479E-01
  6.1200000000E+03  2.2779079008E+00  6.9029458960E+00  3.5195112705E-02  3.4486444061E-02  3.7399522297E-01
  6.1250000000E+03  2.2801342851E+00  6.9005815558E+00  3.5279358026E-02  3.4567779900E-02  3.7421161888E-01
  6.1300000000E+03  2.2823610260E+00  6.8982199537E+00  3.5363735089E-02  3.4649237777E-02  3.7442789287E-01
  6.1350000000E+03  2.2845881234E+00  6.8958610844E+00  3.5448243989E-02  3.4730817763E-02  3.7464404532E-01
  6.1400000000E+03  2.2868155096E+00  6.8935049424E+00  3.5532884822E-02  3.4812519912E-02  3.7486007660E-01
  6.1450000000E+03  2.2890431776E+00  6.8911515223E+00  3.5617657685E-02  3.4894344294E-02  3.7507598707E-01
  6.1500000000E+03  2.2912712012E+00  6.8888008188E+00  3.5702562673E-02  3.4976290997E-02  3.7529177709E-01
  6.1550000000E+03  2.2934995801E+00  6.8864641581E+00  3.5787599883E-02  3.5058360385E-02  3.7550744704E-01
  6.1600000000E+03  2.2957283141E+00  6.8841604401E+00  3.5872769410E-02  3.5140553026E-02  3.7572299728E-01
  6.1650000000E+03  2.2979574030E+00  6.8818593609E+00  3.5958071350E-02  3.5222868210E-02  3.7593842816E-01
  6.1700000000E+03  2.3001868465E+00  6.8795609153E+00  3.6043505799E-02  3.5305306008E-02  3.7615374005E-01
  6.1750000000E+03  2.3024166444E+00  6.8772650984E+00  3.6129072854E-02  3.5387866489E-02  3.7636893331E-01
  6.1800000000E+03  2.3046467964E+00  6.8749719049E+00  3.6214772610E-02  3.5470549725E-02  3.7658400831E-01
  6.1850000000E+03  2.3068773024E+00  6.8726813297E+00  3.6300605163E-02  3.5553355787E-02  3.7679896539E-01
  6.1900000000E+03  2.3091081621E+00  6.8703933677E+00  3.6386570609E-02  3.5636284743E-02  3.7701380492E-01
  6.1950000000E+03  2.3113393016E+00  6.8681080138E+00  3.6472669043E-02  3.5719336648E-02  3.7722852726E-01
  6.2000000000E+03  2.3135702436E+00  6.8658252630E+00  3.6558900563E-02  3.5802511457E-02  3.7744313276E-01
  6.2050000000E+03  2.3158015379E+00  6.8635451102E+00  3.6645265263E-02  3.5885809371E-02  3.7765762178E-01
  6.2100000000E+03  2.3180331843E+00  6.8612675503E+00  3.6731763240E-02  3.5969230460E-02  3.7787199468E-01
  6.2150000000E+03  2.3202651825E+00  6.8589925783E+00  3.6818394589E-02  3.6052774795E-02  3.7808625180E-01
  6.2200000000E+03  2.3224975324E+00  6.8567201892E+00  3.6905159406E-02  3.6136442445E-02  3.7830039351E-01
  6.2250000000E+03  2.3247302337E+00  6.8544503780E+00  3.6992057787E-02  3.6220233481E-02  3.7851442015E-01
  6.2300000000E+03  2.3269632862E+00  6.8521831396E+00  3.7079089828E-02  3.6304147972E-02  3.7872833207E-01
  6.2350000000E+03  2.3291966896E+00  6.8499184692E+00  3.7166255624E-02  3.6388185988E-02  3.7894212963E-01
  6.2400000000E+03  2.3314304437E+00  6.8476563617E+00  3.7253555272E-02  3.6472347600E-02  3.7915581318E-01
  6.2450000000E+03  2.3336645484E+00  6.8453968123E+00  3.7340988867E-02  3.6556632876E-02  3.7936938307E-01
  6.2500000000E+03  2.3358990033E+00  6.8431398159E+00  3.7428556505E-02  3.6641041887E-02  3.7958283964E-01
  6.2550000000E+03  2.3381343846E+00  6.8409036355E+00  3.7516258282E-02  3.6725575370E-02  3.7979618325E-01
  6.2600000000E+03  2.3403704216E+00  6.8386914613E+00  3.7604094293E-02  3.6810233431E-02  3.8000941423E-01
  6.2650000000E+03  2.3426068091E+00  6.8364817678E+00  3.7692064634E-02  3.6895015447E-02  3.8022253295E-01
  6.2700000000E+03  2.3448435470E+00  6.8342745503E+00  3.7780169401E-02  3.6979921487E-02  3.8043553973E-01
  6.2750000000E+03  2.3470806350E+00  6.8320698040E+00  3.7868408689E-02  3.7064951621E-02  3.8064843494E-01
  6.2800000000E+03  2.3493180729E+00  6.8298675241E+00  3.7956782595E-02  3.7150105919E-02  3.8086121890E-01
  6.2850000000E+03  2.3515558605E+00  6.8276677060E+00  3.8045291214E-02  3.7235384449E-02  3.8107389197E-01
  6.2900000000E+03  2.3537939976E+00  6.8254703450E+00  3.8133934641E-02  3.7320787282E-02  3.8128645448E-01
  6.2950000000E+03  2.3560324839E+00  6.8232754363E+00  3.8222712973E-02  3.7406314485E-02  3.8149890679E-01
  6.3000000000E+03  2.3582713192E+00  6.8210829753E+00  3.8311626305E-02  3.7491966129E-02  3.8171124922E-01
  6.3050000000E+03  2.3605105032E+00  6.8188929573E+00  3.8400674732E-02  3.7577742282E-02  3.8192348213E-01
  6.3100000000E+03  2.3627499795E+00  6.8167053776E+00  3.8489858350E-02  3.7663643000E-02  3.8213560584E-01
  6.3150000000E+03  2.3649892045E+00  6.8145202317E+00  3.8579177255E-02  3.7749668211E-02  3.8234762070E-01
  6.3200000000E+03  2.3672287768E+00  6.8123375148E+00  3.8668631542E-02  3.7835818138E-02  3.8255952705E-01
  6.3250000000E+03  2.3694686963E+00  6.8101572224E+00  3.8758221308E-02  3.7922092850E-02  3.8277132522E-01
  6.3300000000E+03  2.3717089628E+00  6.8079793498E+00  3.8847946646E-02  3.8008492414E-02  3.8298301555E-01
  6.3350000000E+03  2.3739495760E+00  6.8058038924E+00  3.8937807654E-02  3.8095016899E-02  3.8319459838E-01
  6.3400000000E+03  2.3761905358E+00  6.8036308458E+00  3.9027804427E-02  3.8181666375E-02  3.8340607404E-01
  6.3450000000E+03  2.3784318418E+00  6.8014602052E+00  3.9117937060E-02  3.8268440910E-02  3.8361744287E-01
  6.3500000000E+03  2.3806734939E+00  6.7992919662E+00  3.9208205648E-02  3.8355340572E-02  3.8382870519E-01
