#[MATERIAL DEFINITION FOR MC-GPU: interaction mean free path and sampling data from PENELOPE 2018]
#[MATERIAL NAME]
# kidney                                                        
#[NOMINAL DENSITY (g/cm^3)]
#   1.05000000
#[NUMBER OF DATA VALUES]
#  23002
#[MEAN FREE PATHS (cm) (ie, average distance between interactions)]
#[Energy (eV)     | Rayleigh        | Compton         | Photoelectric   | TOTAL (+pair prod) (cm) | Rayleigh: max cumul prob F^2]
  5.0000000000E+03  1.7195288101E+00  8.1629135624E+00  2.3429710347E-02  2.3049487827E-02  3.4762533479E-01
  5.0050000000E+03  1.7215617180E+00  8.1577336179E+00  2.3500300670E-02  2.3118127733E-02  3.4788711839E-01
  5.0100000000E+03  1.7235949958E+00  8.1525621277E+00  2.3571032604E-02  2.3186901064E-02  3.4814859645E-01
  5.0150000000E+03  1.7256302763E+00  8.1473990695E+00  2.3641906289E-02  2.3255808232E-02  3.4840976961E-01
  5.0200000000E+03  1.7276669046E+00  8.1422444214E+00  2.3712921868E-02  2.3324849235E-02  3.4867063850E-01
  5.0250000000E+03  1.7297039056E+00  8.1370981611E+00  2.3784079481E-02  2.3394024010E-02  3.4893120377E-01
  5.0300000000E+03  1.7317412788E+00  8.1319602667E+00  2.3855379270E-02  2.3463332672E-02  3.4919146604E-01
  5.0350000000E+03  1.7337790240E+00  8.1268307164E+00  2.3926821377E-02  2.3532775336E-02  3.4945142595E-01
  5.0400000000E+03  1.7358171409E+00  8.1217094883E+00  2.3998405943E-02  2.3602352114E-02  3.4971108413E-01
  5.0450000000E+03  1.7378556291E+00  8.1165965607E+00  2.4070133109E-02  2.3672063123E-02  3.4997044121E-01
  5.0500000000E+03  1.7398944884E+00  8.1114919119E+00  2.4142003018E-02  2.3741908474E-02  3.5022949781E-01
  5.0550000000E+03  1.7419337185E+00  8.1063955203E+00  2.4214015809E-02  2.3811888284E-02  3.5048825456E-01
  5.0600000000E+03  1.7439737225E+00  8.1013073645E+00  2.4286171625E-02  2.3882002740E-02  3.5074671208E-01
  5.0650000000E+03  1.7460148467E+00  8.0962274229E+00  2.4358470608E-02  2.3952252023E-02  3.5100487098E-01
  5.0700000000E+03  1.7480563424E+00  8.0911556743E+00  2.4430912898E-02  2.4022636106E-02  3.5126273190E-01
  5.0750000000E+03  1.7500982092E+00  8.0860920974E+00  2.4503498637E-02  2.4093155104E-02  3.5152029544E-01
  5.0800000000E+03  1.7521404468E+00  8.0810366710E+00  2.4576227967E-02  2.4163809130E-02  3.5177756221E-01
  5.0850000000E+03  1.7541830550E+00  8.0760765705E+00  2.4649101028E-02  2.4234599083E-02  3.5203453284E-01
  5.0900000000E+03  1.7562260334E+00  8.0711328394E+00  2.4722117963E-02  2.4305524377E-02  3.5229120793E-01
  5.0950000000E+03  1.7582693817E+00  8.0661969840E+00  2.4795278913E-02  2.4376585050E-02  3.5254758808E-01
  5.1000000000E+03  1.7603130998E+00  8.0612689842E+00  2.4868584019E-02  2.4447781215E-02  3.5280367391E-01
  5.1050000000E+03  1.7623571871E+00  8.0563488196E+00  2.4942033422E-02  2.4519112985E-02  3.5305946602E-01
  5.1100000000E+03  1.7644020858E+00  8.0514364703E+00  2.5015627265E-02  2.4590580560E-02  3.5331496502E-01
  5.1150000000E+03  1.7664473582E+00  8.0465319161E+00  2.5089365687E-02  2.4662183969E-02  3.5357017149E-01
  5.1200000000E+03  1.7684929998E+00  8.0416351371E+00  2.5163248832E-02  2.4733923324E-02  3.5382508605E-01
  5.1250000000E+03  1.7705390101E+00  8.0367461134E+00  2.5237276840E-02  2.4805798738E-02  3.5407970929E-01
  5.1300000000E+03  1.7725853889E+00  8.0318648252E+00  2.5311449853E-02  2.4877810323E-02  3.5433404179E-01
  5.1350000000E+03  1.7746321359E+00  8.0269912526E+00  2.5385768011E-02  2.4949958194E-02  3.5458808417E-01
  5.1400000000E+03  1.7766792508E+00  8.0221253761E+00  2.5460231457E-02  2.5022242462E-02  3.5484183700E-01
  5.1450000000E+03  1.7787267333E+00  8.0172671759E+00  2.5534840332E-02  2.5094663241E-02  3.5509530088E-01
  5.1500000000E+03  1.7807745831E+00  8.0124166326E+00  2.5609594778E-02  2.5167220644E-02  3.5534847639E-01
  5.1550000000E+03  1.7828232507E+00  8.0075737267E+00  2.5684494935E-02  2.5239914872E-02  3.5560136413E-01
  5.1600000000E+03  1.7848726669E+00  8.0027384386E+00  2.5759540945E-02  2.5312746027E-02  3.5585396470E-01
  5.1650000000E+03  1.7869224507E+00  7.9979620155E+00  2.5834732949E-02  2.5385714660E-02  3.5610627894E-01
  5.1700000000E+03  1.7889726017E+00  7.9932343082E+00  2.5910071089E-02  2.5458820793E-02  3.5635830755E-01
  5.1750000000E+03  1.7910231197E+00  7.9885139616E+00  2.5985555507E-02  2.5532064124E-02  3.5661005124E-01
  5.1800000000E+03  1.7930740044E+00  7.9838009570E+00  2.6061186343E-02  2.5605444766E-02  3.5686151068E-01
  5.1850000000E+03  1.7951252554E+00  7.9790952760E+00  2.6136963739E-02  2.5678962830E-02  3.5711268658E-01
  5.1900000000E+03  1.7971768725E+00  7.9743969001E+00  2.6212887837E-02  2.5752618430E-02  3.5736357960E-01
  5.1950000000E+03  1.7992288555E+00  7.9697058110E+00  2.6288958777E-02  2.5826411677E-02  3.5761419044E-01
  5.2000000000E+03  1.8012812102E+00  7.9650219904E+00  2.6365176701E-02  2.5900342685E-02  3.5786451976E-01
  5.2050000000E+03  1.8033347079E+00  7.9603454200E+00  2.6441541752E-02  2.5974411726E-02  3.5811456825E-01
  5.2100000000E+03  1.8053885715E+00  7.9556760817E+00  2.6518054068E-02  2.6048618752E-02  3.5836433659E-01
  5.2150000000E+03  1.8074428008E+00  7.9510139573E+00  2.6594713794E-02  2.6122963874E-02  3.5861382543E-01
  5.2200000000E+03  1.8094973956E+00  7.9463590288E+00  2.6671521068E-02  2.6197447205E-02  3.5886303545E-01
  5.2250000000E+03  1.8115523554E+00  7.9417112783E+00  2.6748476034E-02  2.6272068856E-02  3.5911196732E-01
  5.2300000000E+03  1.8136076801E+00  7.9370706878E+00  2.6825578833E-02  2.6346828939E-02  3.5936062169E-01
  5.2350000000E+03  1.8156633694E+00  7.9324372394E+00  2.6902829605E-02  2.6421727566E-02  3.5960899923E-01
  5.2400000000E+03  1.8177194230E+00  7.9278109154E+00  2.6980228492E-02  2.6496764847E-02  3.5985710061E-01
  5.2450000000E+03  1.8197758405E+00  7.9231916980E+00  2.7057778292E-02  2.6571943458E-02  3.6010492646E-01
  5.2500000000E+03  1.8218333468E+00  7.9186630622E+00  2.7135487718E-02  2.6647272873E-02  3.6035247746E-01
  5.2550000000E+03  1.8238923717E+00  7.9141473206E+00  2.7213345759E-02  2.6722741678E-02  3.6059975424E-01
  5.2600000000E+03  1.8259517621E+00  7.9096384451E+00  2.7291352558E-02  2.6798349671E-02  3.6084675746E-01
  5.2650000000E+03  1.8280115178E+00  7.9051364188E+00  2.7369508256E-02  2.6874096964E-02  3.6109348777E-01
  5.2700000000E+03  1.8300716386E+00  7.9006412246E+00  2.7447812996E-02  2.6949983667E-02  3.6133994581E-01
  5.2750000000E+03  1.8321321241E+00  7.8961528459E+00  2.7526266917E-02  2.7026009892E-02  3.6158613221E-01
  5.2800000000E+03  1.8341929741E+00  7.8916712657E+00  2.7604870163E-02  2.7102175751E-02  3.6183204763E-01
  5.2850000000E+03  1.8362541883E+00  7.8871964675E+00  2.7683622874E-02  2.7178481354E-02  3.6207769270E-01
  5.2900000000E+03  1.8383157664E+00  7.8827284345E+00  2.7762525192E-02  2.7254926813E-02  3.6232306804E-01
  5.2950000000E+03  1.8403777082E+00  7.8782671501E+00  2.7841577258E-02  2.7331512238E-02  3.6256817431E-01
  5.3000000000E+03  1.8424403616E+00  7.8738125977E+00  2.7920779215E-02  2.7408237818E-02  3.6281301211E-01
  5.3050000000E+03  1.8445035472E+00  7.8693647610E+00  2.8000131203E-02  2.7485103624E-02  3.6305758210E-01
  5.3100000000E+03  1.8465670963E+00  7.8649236234E+00  2.8079633365E-02  2.7562109731E-02  3.6330188488E-01
  5.3150000000E+03  1.8486310086E+00  7.8604891685E+00  2.8159285841E-02  2.7639256249E-02  3.6354592108E-01
  5.3200000000E+03  1.8506952837E+00  7.8560613800E+00  2.8239088774E-02  2.7716543288E-02  3.6378969133E-01
  5.3250000000E+03  1.8527599215E+00  7.8516402417E+00  2.8319042304E-02  2.7793970959E-02  3.6403319623E-01
  5.3300000000E+03  1.8548249217E+00  7.8472295811E+00  2.8399146574E-02  2.7871539421E-02  3.6427643642E-01
  5.3350000000E+03  1.8568902839E+00  7.8429082654E+00  2.8479401725E-02  2.7949249788E-02  3.6451941250E-01
  5.3400000000E+03  1.8589560079E+00  7.8385933742E+00  2.8559807898E-02  2.8027101131E-02  3.6476212509E-01
  5.3450000000E+03  1.8610220934E+00  7.8342848918E+00  2.8640365235E-02  2.8105093560E-02  3.6500457480E-01
  5.3500000000E+03  1.8630883769E+00  7.8299828027E+00  2.8721073878E-02  2.8183227148E-02  3.6524676223E-01
  5.3550000000E+03  1.8651549970E+00  7.8256870915E+00  2.8801933967E-02  2.8261502037E-02  3.6548868799E-01
  5.3600000000E+03  1.8672219777E+00  7.8213977429E+00  2.8882945646E-02  2.8339918343E-02  3.6573035268E-01
  5.3650000000E+03  1.8692893185E+00  7.8171147413E+00  2.8964109054E-02  2.8418476176E-02  3.6597175691E-01
  5.3700000000E+03  1.8713570193E+00  7.8128380716E+00  2.9045424334E-02  2.8497175646E-02  3.6621290127E-01
  5.3750000000E+03  1.8734250797E+00  7.8085677186E+00  2.9126891626E-02  2.8576016862E-02  3.6645378636E-01
  5.3800000000E+03  1.8754934994E+00  7.8043036669E+00  2.9208511074E-02  2.8654999935E-02  3.6669441279E-01
  5.3850000000E+03  1.8775622783E+00  7.8000459015E+00  2.9290282817E-02  2.8734124974E-02  3.6693478113E-01
  5.3900000000E+03  1.8796314160E+00  7.7957944073E+00  2.9372206999E-02  2.8813392089E-02  3.6717489198E-01
  5.3950000000E+03  1.8817009122E+00  7.7915491693E+00  2.9454283759E-02  2.8892801391E-02  3.6741474593E-01
  5.4000000000E+03  1.8837716038E+00  7.7873101724E+00  2.9536513240E-02  2.8972353185E-02  3.6765434357E-01
  5.4050000000E+03  1.8858426733E+00  7.7830774017E+00  2.9618895583E-02  2.9052047390E-02  3.6789368549E-01
  5.4100000000E+03  1.8879141016E+00  7.7788508423E+00  2.9701430930E-02  2.9131884111E-02  3.6813277225E-01
  5.4150000000E+03  1.8899858885E+00  7.7746304794E+00  2.9784119422E-02  2.9211863458E-02  3.6837160445E-01
  5.4200000000E+03  1.8920580337E+00  7.7704903544E+00  2.9866961201E-02  2.9291986591E-02  3.6861018267E-01
  5.4250000000E+03  1.8941305369E+00  7.7663659646E+00  2.9949956408E-02  2.9372252718E-02  3.6884850747E-01
  5.4300000000E+03  1.8962033979E+00  7.7622475605E+00  3.0033105185E-02  2.9452661812E-02  3.6908657944E-01
  5.4350000000E+03  1.8982766164E+00  7.7581351278E+00  3.0116407672E-02  2.9533213981E-02  3.6932439915E-01
  5.4400000000E+03  1.9003501921E+00  7.7540286524E+00  3.0199864013E-02  2.9613909334E-02  3.6956196716E-01
  5.4450000000E+03  1.9024241247E+00  7.7499281202E+00  3.0283474347E-02  2.9694747981E-02  3.6979928406E-01
  5.4500000000E+03  1.9045754811E+00  7.7458335172E+00  3.0367238818E-02  2.9775748867E-02  3.7003635039E-01
  5.4550000000E+03  1.9067277597E+00  7.7417448293E+00  3.0451157565E-02  2.9856893525E-02  3.7027316674E-01
  5.4600000000E+03  1.9088804953E+00  7.7376620427E+00  3.0535230731E-02  2.9938181950E-02  3.7050973365E-01
  5.4650000000E+03  1.9110336875E+00  7.7335851433E+00  3.0619458457E-02  3.0019614253E-02  3.7074605170E-01
  5.4700000000E+03  1.9131873362E+00  7.7295141174E+00  3.0703840885E-02  3.0101190542E-02  3.7098212144E-01
  5.4750000000E+03  1.9153414408E+00  7.7254489511E+00  3.0788378155E-02  3.0182910926E-02  3.7121794343E-01
  5.4800000000E+03  1.9174960012E+00  7.7213896307E+00  3.0873070411E-02  3.0264775515E-02  3.7145351822E-01
  5.4850000000E+03  1.9196510170E+00  7.7173361424E+00  3.0957917792E-02  3.0346784417E-02  3.7168884636E-01
  5.4900000000E+03  1.9218064878E+00  7.7132884725E+00  3.1042920441E-02  3.0428937742E-02  3.7192392842E-01
  5.4950000000E+03  1.9239624135E+00  7.7092466074E+00  3.1128078499E-02  3.0511235599E-02  3.7215876493E-01
  5.5000000000E+03  1.9261224831E+00  7.7052105335E+00  3.1213392107E-02  3.0593679027E-02  3.7239335645E-01
  5.5050000000E+03  1.9282833416E+00  7.7012164556E+00  3.1299296890E-02  3.0676686198E-02  3.7262770351E-01
  5.5100000000E+03  1.9304446592E+00  7.6972727946E+00  3.1385359514E-02  3.0759840820E-02  3.7286180667E-01
  5.5150000000E+03  1.9326064357E+00  7.6933347274E+00  3.1471580125E-02  3.0843142297E-02  3.7309566648E-01
  5.5200000000E+03  1.9347686707E+00  7.6894022409E+00  3.1557958869E-02  3.0926590742E-02  3.7332928361E-01
  5.5250000000E+03  1.9369313639E+00  7.6854753223E+00  3.1644495891E-02  3.1010186267E-02  3.7356265875E-01
  5.5300000000E+03  1.9390945150E+00  7.6815539585E+00  3.1731191337E-02  3.1093928983E-02  3.7379579253E-01
  5.5350000000E+03  1.9412581237E+00  7.6776381368E+00  3.1818045352E-02  3.1177819003E-02  3.7402868560E-01
  5.5400000000E+03  1.9434221896E+00  7.6737278442E+00  3.1905058082E-02  3.1261856438E-02  3.7426133860E-01
  5.5450000000E+03  1.9455867124E+00  7.6698230681E+00  3.1992229673E-02  3.1346041401E-02  3.7449375216E-01
  5.5500000000E+03  1.9477516565E+00  7.6659237956E+00  3.2079560270E-02  3.1430373992E-02  3.7472592691E-01
  5.5550000000E+03  1.9499170448E+00  7.6620300141E+00  3.2167050019E-02  3.1514854330E-02  3.7495786350E-01
  5.5600000000E+03  1.9520828891E+00  7.6581417109E+00  3.2254699065E-02  3.1599482529E-02  3.7518956254E-01
  5.5650000000E+03  1.9542491890E+00  7.6542588733E+00  3.2342507554E-02  3.1684258701E-02  3.7542102466E-01
  5.5700000000E+03  1.9564159442E+00  7.6503814889E+00  3.2430475632E-02  3.1769182957E-02  3.7565225049E-01
  5.5750000000E+03  1.9585831543E+00  7.6465095449E+00  3.2518603443E-02  3.1854255408E-02  3.7588324065E-01
  5.5800000000E+03  1.9607508192E+00  7.6426430291E+00  3.2606891134E-02  3.1939476166E-02  3.7611399576E-01
  5.5850000000E+03  1.9629189384E+00  7.6387819287E+00  3.2695338851E-02  3.2024845341E-02  3.7634451643E-01
  5.5900000000E+03  1.9650875116E+00  7.6349262316E+00  3.2783946738E-02  3.2110363044E-02  3.7657480328E-01
  5.5950000000E+03  1.9672565386E+00  7.6311326975E+00  3.2872714941E-02  3.2196030397E-02  3.7680485693E-01
  5.6000000000E+03  1.9694263012E+00  7.6273654316E+00  3.2961643606E-02  3.2281846963E-02  3.7703467797E-01
  5.6050000000E+03  1.9715968184E+00  7.6236033851E+00  3.3050732879E-02  3.2367812486E-02  3.7726426703E-01
  5.6100000000E+03  1.9737677891E+00  7.6198465462E+00  3.3139982905E-02  3.2453926998E-02  3.7749362470E-01
  5.6150000000E+03  1.9759392130E+00  7.6160949030E+00  3.3229393829E-02  3.2540190607E-02  3.7772275158E-01
  5.6200000000E+03  1.9781110899E+00  7.6123484436E+00  3.3318965798E-02  3.2626603426E-02  3.7795164829E-01
  5.6250000000E+03  1.9802834195E+00  7.6086071565E+00  3.3408698957E-02  3.2713165565E-02  3.7818031541E-01
  5.6300000000E+03  1.9824562014E+00  7.6048710297E+00  3.3498593451E-02  3.2799877134E-02  3.7840875354E-01
  5.6350000000E+03  1.9846294353E+00  7.6011400517E+00  3.3588649426E-02  3.2886738243E-02  3.7863696328E-01
  5.6400000000E+03  1.9868031209E+00  7.5974142107E+00  3.3678867028E-02  3.2973749004E-02  3.7886494522E-01
  5.6450000000E+03  1.9889772580E+00  7.5936934952E+00  3.3769246401E-02  3.3060909525E-02  3.7909269995E-01
  5.6500000000E+03  1.9911519809E+00  7.5899778936E+00  3.3859787693E-02  3.3148219956E-02  3.7932022805E-01
  5.6550000000E+03  1.9933280903E+00  7.5862673943E+00  3.3950491048E-02  3.3235680628E-02  3.7954753011E-01
  5.6600000000E+03  1.9955046515E+00  7.5825619858E+00  3.4041356611E-02  3.3323291393E-02  3.7977460671E-01
  5.6650000000E+03  1.9976816644E+00  7.5788616566E+00  3.4132384529E-02  3.3411052363E-02  3.8000145844E-01
  5.6700000000E+03  1.9998591285E+00  7.5751663954E+00  3.4223574948E-02  3.3498963646E-02  3.8022808587E-01
  5.6750000000E+03  2.0020370436E+00  7.5714761907E+00  3.4314928011E-02  3.3587025352E-02  3.8045448958E-01
  5.6800000000E+03  2.0042154093E+00  7.5677910311E+00  3.4406443867E-02  3.3675237591E-02  3.8068067014E-01
  5.6850000000E+03  2.0063942254E+00  7.5641651817E+00  3.4498122658E-02  3.3763601554E-02  3.8090662812E-01
  5.6900000000E+03  2.0085734916E+00  7.5605645978E+00  3.4589964533E-02  3.3852116689E-02  3.8113236411E-01
  5.6950000000E+03  2.0107532076E+00  7.5569688881E+00  3.4681969635E-02  3.3940782701E-02  3.8135787865E-01
  5.7000000000E+03  2.0129333730E+00  7.5533780418E+00  3.4774138111E-02  3.4029599700E-02  3.8158317232E-01
  5.7050000000E+03  2.0151137091E+00  7.5497920480E+00  3.4866470106E-02  3.4118567716E-02  3.8180824569E-01
  5.7100000000E+03  2.0172943579E+00  7.5462108959E+00  3.4958965766E-02  3.4207686898E-02  3.8203309931E-01
  5.7150000000E+03  2.0194754546E+00  7.5426345747E+00  3.5051625236E-02  3.4296957394E-02  3.8225773374E-01
  5.7200000000E+03  2.0216569991E+00  7.5390630738E+00  3.5144448662E-02  3.4386379314E-02  3.8248214955E-01
  5.7250000000E+03  2.0238389910E+00  7.5354963823E+00  3.5237436189E-02  3.4475952766E-02  3.8270634729E-01
  5.7300000000E+03  2.0260214300E+00  7.5319344896E+00  3.5330587964E-02  3.4565677860E-02  3.8293032750E-01
  5.7350000000E+03  2.0282043158E+00  7.5283773852E+00  3.5423904131E-02  3.4655554704E-02  3.8315409075E-01
  5.7400000000E+03  2.0303876481E+00  7.5248250583E+00  3.5517384836E-02  3.4745583408E-02  3.8337763758E-01
  5.7450000000E+03  2.0325714267E+00  7.5212774985E+00  3.5611030226E-02  3.4835764080E-02  3.8360096854E-01
  5.7500000000E+03  2.0347556512E+00  7.5177346951E+00  3.5704840444E-02  3.4926096828E-02  3.8382408417E-01
  5.7550000000E+03  2.0369404310E+00  7.5141966378E+00  3.5798815638E-02  3.5016581795E-02  3.8404698503E-01
  5.7600000000E+03  2.0391264612E+00  7.5106633159E+00  3.5892955952E-02  3.5107219295E-02  3.8426967165E-01
  5.7650000000E+03  2.0413129376E+00  7.5071347191E+00  3.5987261533E-02  3.5198009199E-02  3.8449214456E-01
  5.7700000000E+03  2.0434998598E+00  7.5036108369E+00  3.6081732525E-02  3.5288951617E-02  3.8471440432E-01
  5.7750000000E+03  2.0456872277E+00  7.5001227984E+00  3.6176369075E-02  3.5380047349E-02  3.8493645145E-01
  5.7800000000E+03  2.0478750410E+00  7.4966798482E+00  3.6271171327E-02  3.5471296723E-02  3.8515828649E-01
  5.7850000000E+03  2.0500632992E+00  7.4932414536E+00  3.6366139429E-02  3.5562698951E-02  3.8537990997E-01
  5.7900000000E+03  2.0522520022E+00  7.4898076044E+00  3.6461273524E-02  3.5654254143E-02  3.8560132241E-01
  5.7950000000E+03  2.0544411496E+00  7.4863782909E+00  3.6556573759E-02  3.5745962405E-02  3.8582252436E-01
  5.8000000000E+03  2.0566307411E+00  7.4829535031E+00  3.6652040279E-02  3.5837823846E-02  3.8604351634E-01
  5.8050000000E+03  2.0588207765E+00  7.4795332311E+00  3.6747673230E-02  3.5929838574E-02  3.8626429886E-01
  5.8100000000E+03  2.0610119948E+00  7.4761174651E+00  3.6843472758E-02  3.6022006922E-02  3.8648487246E-01
  5.8150000000E+03  2.0632044848E+00  7.4727061953E+00  3.6939439008E-02  3.6114329028E-02  3.8670523765E-01
  5.8200000000E+03  2.0653974197E+00  7.4692994120E+00  3.7035572125E-02  3.6206804748E-02  3.8692539496E-01
  5.8250000000E+03  2.0675907993E+00  7.4658971053E+00  3.7131872256E-02  3.6299434189E-02  3.8714534489E-01
  5.8300000000E+03  2.0697846233E+00  7.4624992656E+00  3.7228339546E-02  3.6392217459E-02  3.8736508797E-01
  5.8350000000E+03  2.0719788913E+00  7.4591058831E+00  3.7324974140E-02  3.6485154666E-02  3.8758462471E-01
  5.8400000000E+03  2.0741736032E+00  7.4557169483E+00  3.7421776184E-02  3.6578245916E-02  3.8780395562E-01
  5.8450000000E+03  2.0763687585E+00  7.4523324514E+00  3.7518745823E-02  3.6671491318E-02  3.8802308121E-01
  5.8500000000E+03  2.0785643571E+00  7.4489523830E+00  3.7615883204E-02  3.6764890979E-02  3.8824200200E-01
  5.8550000000E+03  2.0807603986E+00  7.4455767333E+00  3.7713188472E-02  3.6858445005E-02  3.8846071849E-01
  5.8600000000E+03  2.0829568827E+00  7.4422054929E+00  3.7810661772E-02  3.6952153504E-02  3.8867923128E-01
  5.8650000000E+03  2.0851539703E+00  7.4388386522E+00  3.7908303250E-02  3.7046016633E-02  3.8889754093E-01
  5.8700000000E+03  2.0873515617E+00  7.4355344338E+00  3.8006113051E-02  3.7140035922E-02  3.8911564800E-01
  5.8750000000E+03  2.0895495951E+00  7.4322449377E+00  3.8104091322E-02  3.7234210282E-02  3.8933355308E-01
  5.8800000000E+03  2.0917480703E+00  7.4289596934E+00  3.8202238208E-02  3.7328539561E-02  3.8955125672E-01
  5.8850000000E+03  2.0939469870E+00  7.4256786918E+00  3.8300553853E-02  3.7423023865E-02  3.8976875950E-01
  5.8900000000E+03  2.0961463448E+00  7.4224019239E+00  3.8399038405E-02  3.7517663301E-02  3.8998606196E-01
  5.8950000000E+03  2.0983461435E+00  7.4191293805E+00  3.8497692009E-02  3.7612457976E-02  3.9020316468E-01
  5.9000000000E+03  2.1005463829E+00  7.4158610527E+00  3.8596514809E-02  3.7707407996E-02  3.9042006821E-01
  5.9050000000E+03  2.1027470626E+00  7.4125969314E+00  3.8695506952E-02  3.7802513467E-02  3.9063677311E-01
  5.9100000000E+03  2.1049481823E+00  7.4093370077E+00  3.8794668584E-02  3.7897774497E-02  3.9085327993E-01
  5.9150000000E+03  2.1071497418E+00  7.4060812726E+00  3.8893999849E-02  3.7993191192E-02  3.9106958922E-01
  5.9200000000E+03  2.1093531410E+00  7.4028297173E+00  3.8993500894E-02  3.8088764113E-02  3.9128570153E-01
  5.9250000000E+03  2.1115571795E+00  7.3995823328E+00  3.9093171864E-02  3.8184492980E-02  3.9150161741E-01
  5.9300000000E+03  2.1137616589E+00  7.3963391103E+00  3.9193012905E-02  3.8280377834E-02  3.9171733741E-01
  5.9350000000E+03  2.1159665789E+00  7.3931000410E+00  3.9293024162E-02  3.8376418780E-02  3.9193286206E-01
  5.9400000000E+03  2.1181719392E+00  7.3898651159E+00  3.9393205781E-02  3.8472615924E-02  3.9214819192E-01
  5.9450000000E+03  2.1203777396E+00  7.3866343264E+00  3.9493557908E-02  3.8568969374E-02  3.9236332752E-01
  5.9500000000E+03  2.1225839797E+00  7.3834076637E+00  3.9594080687E-02  3.8665479233E-02  3.9257826939E-01
  5.9550000000E+03  2.1247906593E+00  7.3801851191E+00  3.9694774265E-02  3.8762145609E-02  3.9279301808E-01
  5.9600000000E+03  2.1269977782E+00  7.3769666837E+00  3.9795638788E-02  3.8858968606E-02  3.9300757411E-01
  5.9650000000E+03  2.1292053359E+00  7.3738156918E+00  3.9896674400E-02  3.8955950098E-02  3.9322193803E-01
  5.9700000000E+03  2.1314133323E+00  7.3706712069E+00  3.9997881248E-02  3.9053088511E-02  3.9343611035E-01
  5.9750000000E+03  2.1336218198E+00  7.3675306937E+00  4.0099259476E-02  3.9150383898E-02  3.9365009161E-01
  5.9800000000E+03  2.1358307494E+00  7.3643941439E+00  4.0200809232E-02  3.9247836349E-02  3.9386388233E-01
  5.9850000000E+03  2.1380401168E+00  7.3612615491E+00  4.0302530659E-02  3.9345445966E-02  3.9407748304E-01
  5.9900000000E+03  2.1402499219E+00  7.3581329012E+00  4.0404423905E-02  3.9443212857E-02  3.9429089426E-01
  5.9950000000E+03  2.1424601642E+00  7.3550081918E+00  4.0506489114E-02  3.9541137124E-02  3.9450411650E-01
  6.0000000000E+03  2.1446708436E+00  7.3518874127E+00  4.0608726432E-02  3.9639218875E-02  3.9471715030E-01
  6.0050000000E+03  2.1468819598E+00  7.3487705556E+00  4.0711855175E-02  3.9738143394E-02  3.9492999616E-01
  6.0100000000E+03  2.1490935124E+00  7.3456576125E+00  4.0815159381E-02  3.9837228404E-02  3.9514265460E-01
  6.0150000000E+03  2.1513055013E+00  7.3425485751E+00  4.0918639200E-02  3.9936474012E-02  3.9535512613E-01
  6.0200000000E+03  2.1535179260E+00  7.3394434352E+00  4.1022294785E-02  4.0035880330E-02  3.9556741126E-01
  6.0250000000E+03  2.1557307864E+00  7.3363421849E+00  4.1126126286E-02  4.0135447465E-02  3.9577951051E-01
  6.0300000000E+03  2.1579522369E+00  7.3332448159E+00  4.1230133855E-02  4.0235178362E-02  3.9599142438E-01
  6.0350000000E+03  2.1601752452E+00  7.3301513202E+00  4.1334317643E-02  4.0335070703E-02  3.9620315337E-01
  6.0400000000E+03  2.1623986996E+00  7.3270616897E+00  4.1438677803E-02  4.0435124212E-02  3.9641469799E-01
  6.0450000000E+03  2.1646226000E+00  7.3239759166E+00  4.1543214484E-02  4.0535338998E-02  3.9662605874E-01
  6.0500000000E+03  2.1668469459E+00  7.3208939926E+00  4.1647927839E-02  4.0635715169E-02  3.9683723613E-01
  6.0550000000E+03  2.1690717372E+00  7.3178159099E+00  4.1752818020E-02  4.0736252835E-02  3.9704823064E-01
  6.0600000000E+03  2.1712969736E+00  7.3147903300E+00  4.1857885177E-02  4.0836953621E-02  3.9725904278E-01
  6.0650000000E+03  2.1735226548E+00  7.3117828999E+00  4.1963129461E-02  4.0937816586E-02  3.9746967305E-01
  6.0700000000E+03  2.1757487804E+00  7.3087791831E+00  4.2068551026E-02  4.1038841390E-02  3.9768012193E-01
  6.0750000000E+03  2.1779753503E+00  7.3057791720E+00  4.2174150021E-02  4.1140028143E-02  3.9789038991E-01
  6.0800000000E+03  2.1802023642E+00  7.3027828588E+00  4.2279926598E-02  4.1241376953E-02  3.9810047750E-01
  6.0850000000E+03  2.1824734589E+00  7.2997902360E+00  4.2385880910E-02  4.1342903588E-02  3.9831038516E-01
  6.0900000000E+03  2.1847612013E+00  7.2968012962E+00  4.2492013106E-02  4.1444598418E-02  3.9852011340E-01
  6.0950000000E+03  2.1870494613E+00  7.2938160316E+00  4.2598323340E-02  4.1546455779E-02  3.9872966270E-01
  6.1000000000E+03  2.1893382387E+00  7.2908344347E+00  4.2704811761E-02  4.1648475780E-02  3.9893903353E-01
  6.1050000000E+03  2.1916275331E+00  7.2878564982E+00  4.2811478522E-02  4.1750658530E-02  3.9914822639E-01
  6.1100000000E+03  2.1939173441E+00  7.2848822144E+00  4.2918323774E-02  4.1853004139E-02  3.9935724174E-01
  6.1150000000E+03  2.1962076716E+00  7.2819115759E+00  4.3025347669E-02  4.1955512713E-02  3.9956608008E-01
  6.1200000000E+03  2.1984985152E+00  7.2789445753E+00  4.3132550358E-02  4.2058184361E-02  3.9977474187E-01
  6.1250000000E+03  2.2007898745E+00  7.2759812052E+00  4.3239931992E-02  4.2161019193E-02  3.9998322759E-01
  6.1300000000E+03  2.2030817494E+00  7.2730214581E+00  4.3347492724E-02  4.2264017316E-02  4.0019153771E-01
  6.1350000000E+03  2.2053741394E+00  7.2700653266E+00  4.3455232704E-02  4.2367178838E-02  4.0039967271E-01
  6.1400000000E+03  2.2076671642E+00  7.2671128035E+00  4.3563152083E-02  4.2470503911E-02  4.0060763305E-01
  6.1450000000E+03  2.2099608358E+00  7.2641638814E+00  4.3671251015E-02  4.2573992649E-02  4.0081541921E-01
  6.1500000000E+03  2.2122550220E+00  7.2612185529E+00  4.3779529649E-02  4.2677645111E-02  4.0102303165E-01
  6.1550000000E+03  2.2145497225E+00  7.2582932484E+00  4.3887988138E-02  4.2781461976E-02  4.0123047083E-01
  6.1600000000E+03  2.2168449369E+00  7.2554153796E+00  4.3996626632E-02  4.2885444319E-02  4.0143773722E-01
  6.1650000000E+03  2.2191406651E+00  7.2525409856E+00  4.4105445285E-02  4.2989590729E-02  4.0164483129E-01
  6.1700000000E+03  2.2214369066E+00  7.2496700591E+00  4.4214444246E-02  4.3093901315E-02  4.0185175359E-01
  6.1750000000E+03  2.2237336611E+00  7.2468025934E+00  4.4323623667E-02  4.3198376183E-02  4.0205850467E-01
  6.1800000000E+03  2.2260309285E+00  7.2439385813E+00  4.4432983701E-02  4.3303015441E-02  4.0226508505E-01
  6.1850000000E+03  2.2283287083E+00  7.2410780159E+00  4.4542524498E-02  4.3407819198E-02  4.0247149521E-01
  6.1900000000E+03  2.2306270004E+00  7.2382208904E+00  4.4652246210E-02  4.3512787559E-02  4.0267773567E-01
  6.1950000000E+03  2.2329257724E+00  7.2353671977E+00  4.4762148988E-02  4.3617920620E-02  4.0288380691E-01
  6.2000000000E+03  2.2352248175E+00  7.2325169311E+00  4.4872232985E-02  4.3723218410E-02  4.0308970944E-01
  6.2050000000E+03  2.2375243736E+00  7.2296700836E+00  4.4982498351E-02  4.3828681125E-02  4.0329544375E-01
  6.2100000000E+03  2.2398244404E+00  7.2268266484E+00  4.5092945239E-02  4.3934308874E-02  4.0350101033E-01
  6.2150000000E+03  2.2421250174E+00  7.2239866187E+00  4.5203573798E-02  4.4040101762E-02  4.0370640968E-01
  6.2200000000E+03  2.2444261046E+00  7.2211499876E+00  4.5314384183E-02  4.4146059896E-02  4.0391164227E-01
  6.2250000000E+03  2.2467277014E+00  7.2183167483E+00  4.5425376542E-02  4.4252183384E-02  4.0411670861E-01
  6.2300000000E+03  2.2490298078E+00  7.2154868941E+00  4.5536551029E-02  4.4358472332E-02  4.0432160917E-01
  6.2350000000E+03  2.2513324233E+00  7.2126604183E+00  4.5647907795E-02  4.4464926846E-02  4.0452634444E-01
  6.2400000000E+03  2.2536355476E+00  7.2098373140E+00  4.5759446992E-02  4.4571547033E-02  4.0473091490E-01
  6.2450000000E+03  2.2559391805E+00  7.2070175745E+00  4.5871168770E-02  4.4678333000E-02  4.0493532103E-01
  6.2500000000E+03  2.2582433217E+00  7.2042011933E+00  4.5983073281E-02  4.4785284852E-02  4.0513956332E-01
  6.2550000000E+03  2.2605483478E+00  7.2014146626E+00  4.6095160678E-02  4.4892403875E-02  4.0534364223E-01
  6.2600000000E+03  2.2628540815E+00  7.1986626055E+00  4.6207431111E-02  4.4999690304E-02  4.0554755825E-01
  6.2650000000E+03  2.2651603234E+00  7.1959137962E+00  4.6319884732E-02  4.5107142959E-02  4.0575131185E-01
  6.2700000000E+03  2.2674670731E+00  7.1931682281E+00  4.6432521693E-02  4.5214761948E-02  4.0595490350E-01
  6.2750000000E+03  2.2697743303E+00  7.1904258949E+00  4.6545342145E-02  4.5322547376E-02  4.0615833368E-01
  6.2800000000E+03  2.2720820947E+00  7.1876867902E+00  4.6658346240E-02  4.5430499349E-02  4.0636160284E-01
  6.2850000000E+03  2.2743903661E+00  7.1849509077E+00  4.6771534129E-02  4.5538617973E-02  4.0656471146E-01
  6.2900000000E+03  2.2766991441E+00  7.1822182409E+00  4.6884905964E-02  4.5646903354E-02  4.0676766002E-01
  6.2950000000E+03  2.2790084284E+00  7.1794887836E+00  4.6998461897E-02  4.5755355597E-02  4.0697044896E-01
  6.3000000000E+03  2.2813182188E+00  7.1767625294E+00  4.7112202079E-02  4.5863974808E-02  4.0717307875E-01
  6.3050000000E+03  2.2836285149E+00  7.1740394720E+00  4.7226126661E-02  4.5972761092E-02  4.0737554986E-01
  6.3100000000E+03  2.2859392528E+00  7.1713196052E+00  4.7340235796E-02  4.6081714529E-02  4.0757786274E-01
  6.3150000000E+03  2.2882498179E+00  7.1686029227E+00  4.7454529635E-02  4.6190834973E-02  4.0778001785E-01
  6.3200000000E+03  2.2905608870E+00  7.1658894183E+00  4.7569008329E-02  4.6300122805E-02  4.0798201566E-01
  6.3250000000E+03  2.2928724598E+00  7.1631790857E+00  4.7683672031E-02  4.6409578129E-02  4.0818385660E-01
  6.3300000000E+03  2.2951845359E+00  7.1604719187E+00  4.7798520890E-02  4.6519201051E-02  4.0838554115E-01
  6.3350000000E+03  2.2974971152E+00  7.1577679111E+00  4.7913555061E-02  4.6628991675E-02  4.0858706975E-01
  6.3400000000E+03  2.2998101974E+00  7.1550670568E+00  4.8028774693E-02  4.6738950106E-02  4.0878844284E-01
  6.3450000000E+03  2.3021237820E+00  7.1523693496E+00  4.8144179938E-02  4.6849076449E-02  4.0898966089E-01
  6.3500000000E+03  2.3044378690E+00  7.1496747833E+00  4.8259770949E-02  4.6959370809E-02  4.0919072433E-01
