#[MATERIAL DEFINITION FOR MC-GPU: interaction mean free path and sampling data from PENELOPE 2018]
#[MATERIAL NAME]
# adrenals                                                      
#[NOMINAL DENSITY (g/cm^3)]
#   1.03000000
#[NUMBER OF DATA VALUES]
#  23002
#[MEAN FREE PATHS (cm) (ie, average distance between interactions)]
#[Energy (eV)     | Rayleigh        | Compton         | Photoelectric   | TOTAL (+pair prod) (cm) | Rayleigh: max cumul prob F^2]
  5.0000000000E+03  1.8487363445E+00  8.2705448752E+00  2.5932011179E-02  2.5494466217E-02  3.4601589828E-01
  5.0050000000E+03  1.8509195955E+00  8.2653398439E+00  2.6010310769E-02  2.5570509366E-02  3.4627609524E-01
  5.0100000000E+03  1.8531032410E+00  8.2601432806E+00  2.6088767966E-02  2.5646700586E-02  3.4653600428E-01
  5.0150000000E+03  1.8552889026E+00  8.2549551633E+00  2.6167382930E-02  2.5723040319E-02  3.4679562605E-01
  5.0200000000E+03  1.8574759298E+00  8.2497754697E+00  2.6246155818E-02  2.5799528567E-02  3.4705496119E-01
  5.0250000000E+03  1.8596633541E+00  8.2446041778E+00  2.6325086790E-02  2.5876165273E-02  3.4731401034E-01
  5.0300000000E+03  1.8618511750E+00  8.2394412657E+00  2.6404176003E-02  2.5952950563E-02  3.4757277413E-01
  5.0350000000E+03  1.8640393923E+00  8.2342867115E+00  2.6483423618E-02  2.6029884564E-02  3.4783125321E-01
  5.0400000000E+03  1.8662280056E+00  8.2291404932E+00  2.6562829791E-02  2.6106967401E-02  3.4808944821E-01
  5.0450000000E+03  1.8684170146E+00  8.2240025894E+00  2.6642394682E-02  2.6184199202E-02  3.4834735975E-01
  5.0500000000E+03  1.8706064191E+00  8.2188729781E+00  2.6722118449E-02  2.6261580093E-02  3.4860498847E-01
  5.0550000000E+03  1.8727962186E+00  8.2137516380E+00  2.6802001252E-02  2.6339110200E-02  3.4886233500E-01
  5.0600000000E+03  1.8749865514E+00  8.2086385474E+00  2.6882043247E-02  2.6416789677E-02  3.4911939996E-01
  5.0650000000E+03  1.8771775365E+00  8.2035336850E+00  2.6962244595E-02  2.6494618673E-02  3.4937618397E-01
  5.0700000000E+03  1.8793689163E+00  8.1984370295E+00  2.7042605453E-02  2.6572597265E-02  3.4963268765E-01
  5.0750000000E+03  1.8815606904E+00  8.1933485595E+00  2.7123125980E-02  2.6650725577E-02  3.4988891163E-01
  5.0800000000E+03  1.8837528585E+00  8.1882682539E+00  2.7203806335E-02  2.6729003736E-02  3.5014485652E-01
  5.0850000000E+03  1.8859454202E+00  8.1832850915E+00  2.7284646676E-02  2.6807432823E-02  3.5040052293E-01
  5.0900000000E+03  1.8881383754E+00  8.1783184840E+00  2.7365647161E-02  2.6886012112E-02  3.5065591148E-01
  5.0950000000E+03  1.8903317236E+00  8.1733597629E+00  2.7446807951E-02  2.6964741638E-02  3.5091102277E-01
  5.1000000000E+03  1.8925254646E+00  8.1684089079E+00  2.7528129202E-02  2.7043621526E-02  3.5116585742E-01
  5.1050000000E+03  1.8947195980E+00  8.1634658987E+00  2.7609611073E-02  2.7122651902E-02  3.5142041604E-01
  5.1100000000E+03  1.8969147310E+00  8.1585307153E+00  2.7691253724E-02  2.7201833015E-02  3.5167469922E-01
  5.1150000000E+03  1.8991102627E+00  8.1536033376E+00  2.7773057312E-02  2.7281164869E-02  3.5192870757E-01
  5.1200000000E+03  1.9013061868E+00  8.1486837458E+00  2.7855021996E-02  2.7360647588E-02  3.5218244169E-01
  5.1250000000E+03  1.9035025028E+00  8.1437719198E+00  2.7937147935E-02  2.7440281297E-02  3.5243590217E-01
  5.1300000000E+03  1.9056992105E+00  8.1388678400E+00  2.8019435287E-02  2.7520066121E-02  3.5268908963E-01
  5.1350000000E+03  1.9078963096E+00  8.1339714865E+00  2.8101884211E-02  2.7600002185E-02  3.5294200464E-01
  5.1400000000E+03  1.9100937997E+00  8.1290828396E+00  2.8184494865E-02  2.7680089614E-02  3.5319464780E-01
  5.1450000000E+03  1.9122916807E+00  8.1242018798E+00  2.8267267409E-02  2.7760328533E-02  3.5344701971E-01
  5.1500000000E+03  1.9144899520E+00  8.1193285875E+00  2.8350201999E-02  2.7840719067E-02  3.5369912094E-01
  5.1550000000E+03  1.9166890374E+00  8.1144629433E+00  2.8433298796E-02  2.7921261431E-02  3.5395095210E-01
  5.1600000000E+03  1.9188888716E+00  8.1096049277E+00  2.8516557957E-02  2.8001955735E-02  3.5420251380E-01
  5.1650000000E+03  1.9210890964E+00  8.1048067438E+00  2.8599979642E-02  2.8082802657E-02  3.5445380690E-01
  5.1700000000E+03  1.9232897114E+00  8.1000580546E+00  2.8683564008E-02  2.8163802209E-02  3.5470483210E-01
  5.1750000000E+03  1.9254907163E+00  8.0953167339E+00  2.8767311214E-02  2.8244954012E-02  3.5495559008E-01
  5.1800000000E+03  1.9276921109E+00  8.0905827634E+00  2.8851221419E-02  2.8326258193E-02  3.5520608152E-01
  5.1850000000E+03  1.9298938948E+00  8.0858561244E+00  2.8935294781E-02  2.8407714875E-02  3.5545630708E-01
  5.1900000000E+03  1.9320960677E+00  8.0811367986E+00  2.9019531459E-02  2.8489324182E-02  3.5570626743E-01
  5.1950000000E+03  1.9342986293E+00  8.0764247676E+00  2.9103931612E-02  2.8571086239E-02  3.5595596324E-01
  5.2000000000E+03  1.9365015874E+00  8.0717200132E+00  2.9188495397E-02  2.8653001171E-02  3.5620539516E-01
  5.2050000000E+03  1.9387059382E+00  8.0670225171E+00  2.9273222974E-02  2.8735069321E-02  3.5645456386E-01
  5.2100000000E+03  1.9409106781E+00  8.0623322612E+00  2.9358114501E-02  2.8817290594E-02  3.5670346999E-01
  5.2150000000E+03  1.9431158068E+00  8.0576492274E+00  2.9443170136E-02  2.8899665115E-02  3.5695211421E-01
  5.2200000000E+03  1.9453213240E+00  8.0529733977E+00  2.9528390039E-02  2.8982193007E-02  3.5720049717E-01
  5.2250000000E+03  1.9475272295E+00  8.0483047541E+00  2.9613774367E-02  2.9064874393E-02  3.5744861952E-01
  5.2300000000E+03  1.9497335228E+00  8.0436432786E+00  2.9699323279E-02  2.9147709398E-02  3.5769648191E-01
  5.2350000000E+03  1.9519402037E+00  8.0389889535E+00  2.9785036934E-02  2.9230698144E-02  3.5794408498E-01
  5.2400000000E+03  1.9541472720E+00  8.0343417610E+00  2.9870915490E-02  2.9313840755E-02  3.5819142937E-01
  5.2450000000E+03  1.9563547272E+00  8.0297016833E+00  2.9956959106E-02  2.9397137355E-02  3.5843851573E-01
  5.2500000000E+03  1.9585644497E+00  8.0251535808E+00  3.0043167940E-02  2.9480589638E-02  3.5868534469E-01
  5.2550000000E+03  1.9607775545E+00  8.0206184783E+00  3.0129542151E-02  2.9564196936E-02  3.5893191689E-01
  5.2600000000E+03  1.9629910517E+00  8.0160902481E+00  3.0216081897E-02  2.9647958615E-02  3.5917823297E-01
  5.2650000000E+03  1.9652049410E+00  8.0115688730E+00  3.0302787337E-02  2.9731874798E-02  3.5942429354E-01
  5.2700000000E+03  1.9674192222E+00  8.0070543364E+00  3.0389658630E-02  2.9815945609E-02  3.5967009925E-01
  5.2750000000E+03  1.9696338949E+00  8.0025466212E+00  3.0476695933E-02  2.9900171170E-02  3.5991565072E-01
  5.2800000000E+03  1.9718489589E+00  7.9980457109E+00  3.0563899406E-02  2.9984551605E-02  3.6016094856E-01
  5.2850000000E+03  1.9740644138E+00  7.9935515886E+00  3.0651269207E-02  3.0069087036E-02  3.6040599341E-01
  5.2900000000E+03  1.9762802593E+00  7.9890642378E+00  3.0738805494E-02  3.0153777585E-02  3.6065078589E-01
  5.2950000000E+03  1.9784964952E+00  7.9845836419E+00  3.0826508427E-02  3.0238623376E-02  3.6089532660E-01
  5.3000000000E+03  1.9807127943E+00  7.9801097842E+00  3.0914378163E-02  3.0323624455E-02  3.6113961617E-01
  5.3050000000E+03  1.9829293246E+00  7.9756426484E+00  3.1002414861E-02  3.0408780982E-02  3.6138365520E-01
  5.3100000000E+03  1.9851462437E+00  7.9711822181E+00  3.1090618679E-02  3.0494093117E-02  3.6162744431E-01
  5.3150000000E+03  1.9873635513E+00  7.9667284767E+00  3.1178989777E-02  3.0579560983E-02  3.6187098411E-01
  5.3200000000E+03  1.9895812471E+00  7.9622814082E+00  3.1267528312E-02  3.0665184700E-02  3.6211427520E-01
  5.3250000000E+03  1.9917993308E+00  7.9578409961E+00  3.1356234444E-02  3.0750964393E-02  3.6235731819E-01
  5.3300000000E+03  1.9940178022E+00  7.9534111238E+00  3.1445108330E-02  3.0836900240E-02  3.6260011368E-01
  5.3350000000E+03  1.9962366609E+00  7.9490718025E+00  3.1534150129E-02  3.0922993577E-02  3.6284266226E-01
  5.3400000000E+03  1.9984559065E+00  7.9447389104E+00  3.1623360000E-02  3.1009243270E-02  3.6308496454E-01
  5.3450000000E+03  2.0006755390E+00  7.9404124319E+00  3.1712738101E-02  3.1095649440E-02  3.6332702111E-01
  5.3500000000E+03  2.0028951183E+00  7.9360923514E+00  3.1802284591E-02  3.1182212102E-02  3.6356883257E-01
  5.3550000000E+03  2.0051150186E+00  7.9317786537E+00  3.1891999628E-02  3.1268931469E-02  3.6381039950E-01
  5.3600000000E+03  2.0073353041E+00  7.9274713232E+00  3.1981883371E-02  3.1355807678E-02  3.6405172249E-01
  5.3650000000E+03  2.0095559746E+00  7.9231703447E+00  3.2071935978E-02  3.1442840849E-02  3.6429280213E-01
  5.3700000000E+03  2.0117770296E+00  7.9188757029E+00  3.2162157607E-02  3.1530031105E-02  3.6453363901E-01
  5.3750000000E+03  2.0139984690E+00  7.9145873826E+00  3.2252548418E-02  3.1617378567E-02  3.6477423371E-01
  5.3800000000E+03  2.0162202924E+00  7.9103053685E+00  3.2343108569E-02  3.1704883356E-02  3.6501458681E-01
  5.3850000000E+03  2.0184424996E+00  7.9060296457E+00  3.2433838218E-02  3.1792545593E-02  3.6525469889E-01
  5.3900000000E+03  2.0206650902E+00  7.9017601990E+00  3.2524737524E-02  3.1880365400E-02  3.6549457052E-01
  5.3950000000E+03  2.0228880640E+00  7.8974970134E+00  3.2615806645E-02  3.1968342897E-02  3.6573420228E-01
  5.4000000000E+03  2.0251125833E+00  7.8932400738E+00  3.2707045739E-02  3.2056478497E-02  3.6597359474E-01
  5.4050000000E+03  2.0273375129E+00  7.8889893655E+00  3.2798454966E-02  3.2144772038E-02  3.6621274848E-01
  5.4100000000E+03  2.0295628262E+00  7.8847448735E+00  3.2890034484E-02  3.2233223634E-02  3.6645166406E-01
  5.4150000000E+03  2.0317885231E+00  7.8805065830E+00  3.2981784451E-02  3.2321833406E-02  3.6669034204E-01
  5.4200000000E+03  2.0340146032E+00  7.8763494519E+00  3.3073705026E-02  3.2410602745E-02  3.6692878300E-01
  5.4250000000E+03  2.0362410663E+00  7.8722081803E+00  3.3165796367E-02  3.2499530682E-02  3.6716698749E-01
  5.4300000000E+03  2.0384679120E+00  7.8680728981E+00  3.3258058633E-02  3.2588617173E-02  3.6740495608E-01
  5.4350000000E+03  2.0406951401E+00  7.8639435913E+00  3.3350491982E-02  3.2677862338E-02  3.6764268933E-01
  5.4400000000E+03  2.0429227503E+00  7.8598202457E+00  3.3443096573E-02  3.2767266297E-02  3.6788018778E-01
  5.4450000000E+03  2.0451507423E+00  7.8557028472E+00  3.3535872564E-02  3.2856829172E-02  3.6811745201E-01
  5.4500000000E+03  2.0474546950E+00  7.8515913819E+00  3.3628820113E-02  3.2946570651E-02  3.6835448255E-01
  5.4550000000E+03  2.0497595835E+00  7.8474858356E+00  3.3721939380E-02  3.3036471557E-02  3.6859127997E-01
  5.4600000000E+03  2.0520649514E+00  7.8433861946E+00  3.3815230523E-02  3.3126531892E-02  3.6882784480E-01
  5.4650000000E+03  2.0543707984E+00  7.8392924449E+00  3.3908693700E-02  3.3216751775E-02  3.6906417761E-01
  5.4700000000E+03  2.0566771242E+00  7.8352045726E+00  3.4002329069E-02  3.3307131329E-02  3.6930027892E-01
  5.4750000000E+03  2.0589839284E+00  7.8311225640E+00  3.4096136790E-02  3.3397670673E-02  3.6953614930E-01
  5.4800000000E+03  2.0612912108E+00  7.8270464053E+00  3.4190117020E-02  3.3488369928E-02  3.6977178927E-01
  5.4850000000E+03  2.0635989709E+00  7.8229760828E+00  3.4284269918E-02  3.3579229214E-02  3.7000719938E-01
  5.4900000000E+03  2.0659072084E+00  7.8189115828E+00  3.4378595643E-02  3.3670248650E-02  3.7024238017E-01
  5.4950000000E+03  2.0682159230E+00  7.8148528918E+00  3.4473094354E-02  3.3761428358E-02  3.7047733217E-01
  5.5000000000E+03  2.0705288370E+00  7.8107999961E+00  3.4567766207E-02  3.3852769452E-02  3.7071205593E-01
  5.5050000000E+03  2.0728425652E+00  7.8067894755E+00  3.4663103670E-02  3.3944743959E-02  3.7094655196E-01
  5.5100000000E+03  2.0751567748E+00  7.8028298388E+00  3.4758616876E-02  3.4036882084E-02  3.7118082080E-01
  5.5150000000E+03  2.0774714654E+00  7.7988757993E+00  3.4854305986E-02  3.4129183098E-02  3.7141486299E-01
  5.5200000000E+03  2.0797866369E+00  7.7949273440E+00  3.4950171165E-02  3.4221647127E-02  3.7164867925E-01
  5.5250000000E+03  2.0821022888E+00  7.7909844598E+00  3.5046212575E-02  3.4314274293E-02  3.7188227023E-01
  5.5300000000E+03  2.0844184208E+00  7.7870471340E+00  3.5142430380E-02  3.4407064719E-02  3.7211563656E-01
  5.5350000000E+03  2.0867350326E+00  7.7831153536E+00  3.5238824743E-02  3.4500018530E-02  3.7234877886E-01
  5.5400000000E+03  2.0890521238E+00  7.7791891059E+00  3.5335395827E-02  3.4593135848E-02  3.7258169775E-01
  5.5450000000E+03  2.0913696941E+00  7.7752683781E+00  3.5432143796E-02  3.4686416797E-02  3.7281439384E-01
  5.5500000000E+03  2.0936874943E+00  7.7713531575E+00  3.5529068812E-02  3.4779861431E-02  3.7304686775E-01
  5.5550000000E+03  2.0960056888E+00  7.7674434313E+00  3.5626171039E-02  3.4873469918E-02  3.7327912008E-01
  5.5600000000E+03  2.0983243610E+00  7.7635391870E+00  3.5723450640E-02  3.4967242404E-02  3.7351115145E-01
  5.5650000000E+03  2.1006435104E+00  7.7596404119E+00  3.5820907778E-02  3.5061179011E-02  3.7374296246E-01
  5.5700000000E+03  2.1029631369E+00  7.7557470934E+00  3.5918542617E-02  3.5155279863E-02  3.7397455372E-01
  5.5750000000E+03  2.1052832401E+00  7.7518592191E+00  3.6016355319E-02  3.5249545082E-02  3.7420592582E-01
  5.5800000000E+03  2.1076038196E+00  7.7479767764E+00  3.6114346047E-02  3.5343974791E-02  3.7443707937E-01
  5.5850000000E+03  2.1099248751E+00  7.7440997530E+00  3.6212514966E-02  3.5438569111E-02  3.7466801496E-01
  5.5900000000E+03  2.1122464063E+00  7.7402281363E+00  3.6310862238E-02  3.5533328167E-02  3.7489873318E-01
  5.5950000000E+03  2.1145684128E+00  7.7364191861E+00  3.6409388026E-02  3.5628253293E-02  3.7512923464E-01
  5.6000000000E+03  2.1168909465E+00  7.7326366922E+00  3.6508092494E-02  3.5723343879E-02  3.7535951992E-01
  5.6050000000E+03  2.1192140105E+00  7.7288594210E+00  3.6606975805E-02  3.5818599599E-02  3.7558958960E-01
  5.6100000000E+03  2.1215375490E+00  7.7250873604E+00  3.6706038122E-02  3.5914020561E-02  3.7581944428E-01
  5.6150000000E+03  2.1238615617E+00  7.7213204988E+00  3.6805279608E-02  3.6009606887E-02  3.7604908454E-01
  5.6200000000E+03  2.1261860483E+00  7.7175588243E+00  3.6904700426E-02  3.6105358698E-02  3.7627851095E-01
  5.6250000000E+03  2.1285110084E+00  7.7138023251E+00  3.7004300740E-02  3.6201276116E-02  3.7650772411E-01
  5.6300000000E+03  2.1308364417E+00  7.7100509896E+00  3.7104080713E-02  3.6297359264E-02  3.7673672458E-01
  5.6350000000E+03  2.1331623480E+00  7.7063048061E+00  3.7204040509E-02  3.6393608262E-02  3.7696551295E-01
  5.6400000000E+03  2.1354887268E+00  7.7025637629E+00  3.7304180289E-02  3.6490023233E-02  3.7719408978E-01
  5.6450000000E+03  2.1378155778E+00  7.6988278485E+00  3.7404500218E-02  3.6586604297E-02  3.7742245564E-01
  5.6500000000E+03  2.1401430230E+00  7.6950970512E+00  3.7505000459E-02  3.6683351613E-02  3.7765061112E-01
  5.6550000000E+03  2.1424717889E+00  7.6913713596E+00  3.7605681175E-02  3.6780265516E-02  3.7787855676E-01
  5.6600000000E+03  2.1448010272E+00  7.6876507622E+00  3.7706542530E-02  3.6877345879E-02  3.7810629315E-01
  5.6650000000E+03  2.1471307378E+00  7.6839352474E+00  3.7807584686E-02  3.6974592822E-02  3.7833382083E-01
  5.6700000000E+03  2.1494609203E+00  7.6802248040E+00  3.7908807806E-02  3.7072006468E-02  3.7856114038E-01
  5.6750000000E+03  2.1517915743E+00  7.6765194204E+00  3.8010212055E-02  3.7169586938E-02  3.7878825234E-01
  5.6800000000E+03  2.1541226996E+00  7.6728190854E+00  3.8111797594E-02  3.7267334351E-02  3.7901515728E-01
  5.6850000000E+03  2.1564542958E+00  7.6691784609E+00  3.8213564588E-02  3.7365250127E-02  3.7924185576E-01
  5.6900000000E+03  2.1587863626E+00  7.6655632541E+00  3.8315513200E-02  3.7463333591E-02  3.7946834832E-01
  5.6950000000E+03  2.1611188997E+00  7.6619529247E+00  3.8417643593E-02  3.7561584381E-02  3.7969463551E-01
  5.7000000000E+03  2.1634519067E+00  7.6583474617E+00  3.8519955930E-02  3.7660002617E-02  3.7992071789E-01
  5.7050000000E+03  2.1657853039E+00  7.6547468545E+00  3.8622450374E-02  3.7758588394E-02  3.8014659600E-01
  5.7100000000E+03  2.1681191314E+00  7.6511510921E+00  3.8725127089E-02  3.7857341846E-02  3.8037227039E-01
  5.7150000000E+03  2.1704534278E+00  7.6475601639E+00  3.8827986238E-02  3.7956263105E-02  3.8059774160E-01
  5.7200000000E+03  2.1727881927E+00  7.6439740591E+00  3.8931027984E-02  3.8055352292E-02  3.8082301016E-01
  5.7250000000E+03  2.1751234259E+00  7.6403927670E+00  3.9034252490E-02  3.8154609525E-02  3.8104807663E-01
  5.7300000000E+03  2.1774591270E+00  7.6368162770E+00  3.9137659920E-02  3.8254034926E-02  3.8127294154E-01
  5.7350000000E+03  2.1797952957E+00  7.6332445785E+00  3.9241250437E-02  3.8353628614E-02  3.8149760542E-01
  5.7400000000E+03  2.1821319317E+00  7.6296776609E+00  3.9345024204E-02  3.8453390709E-02  3.8172206880E-01
  5.7450000000E+03  2.1844690346E+00  7.6261155136E+00  3.9448981384E-02  3.8553321332E-02  3.8194633223E-01
  5.7500000000E+03  2.1868066043E+00  7.6225581260E+00  3.9553122141E-02  3.8653420601E-02  3.8217039622E-01
  5.7550000000E+03  2.1891447723E+00  7.6190054878E+00  3.9657446638E-02  3.8753688677E-02  3.8239426131E-01
  5.7600000000E+03  2.1914843756E+00  7.6154575884E+00  3.9761955038E-02  3.8854125945E-02  3.8261792802E-01
  5.7650000000E+03  2.1938244459E+00  7.6119144174E+00  3.9866647504E-02  3.8954732221E-02  3.8284139687E-01
  5.7700000000E+03  2.1961649831E+00  7.6083759645E+00  3.9971524200E-02  3.9055507623E-02  3.8306466840E-01
  5.7750000000E+03  2.1985059868E+00  7.6048735382E+00  4.0076585289E-02  3.9156453103E-02  3.8328774312E-01
  5.7800000000E+03  2.2008474567E+00  7.6014164372E+00  4.0181830935E-02  3.9257569042E-02  3.8351062154E-01
  5.7850000000E+03  2.2031893924E+00  7.5979638950E+00  4.0287261299E-02  3.9358854485E-02  3.8373330419E-01
  5.7900000000E+03  2.2055317937E+00  7.5945159017E+00  4.0392876547E-02  3.9460309552E-02  3.8395579159E-01
  5.7950000000E+03  2.2078746603E+00  7.5910724473E+00  4.0498676840E-02  3.9561934362E-02  3.8417808424E-01
  5.8000000000E+03  2.2102179918E+00  7.5876335220E+00  4.0604662343E-02  3.9663729034E-02  3.8440018265E-01
  5.8050000000E+03  2.2125617880E+00  7.5841991159E+00  4.0710833218E-02  3.9765693686E-02  3.8462208734E-01
  5.8100000000E+03  2.2149066748E+00  7.5807692192E+00  4.0817189630E-02  3.9867828641E-02  3.8484379882E-01
  5.8150000000E+03  2.2172527273E+00  7.5773438221E+00  4.0923731740E-02  3.9970134042E-02  3.8506531759E-01
  5.8200000000E+03  2.2195992453E+00  7.5739229148E+00  4.1030459712E-02  4.0072609783E-02  3.8528664416E-01
  5.8250000000E+03  2.2219462283E+00  7.5705064876E+00  4.1137373710E-02  4.0175255982E-02  3.8550777902E-01
  5.8300000000E+03  2.2242936761E+00  7.5670945308E+00  4.1244473897E-02  4.0278072757E-02  3.8572872269E-01
  5.8350000000E+03  2.2266415883E+00  7.5636870347E+00  4.1351760437E-02  4.0381060228E-02  3.8594947566E-01
  5.8400000000E+03  2.2289899647E+00  7.5602839897E+00  4.1459233491E-02  4.0484218510E-02  3.8617003843E-01
  5.8450000000E+03  2.2313388050E+00  7.5568853861E+00  4.1566893225E-02  4.0587547724E-02  3.8639041149E-01
  5.8500000000E+03  2.2336881088E+00  7.5534912144E+00  4.1674739800E-02  4.0691047987E-02  3.8661059533E-01
  5.8550000000E+03  2.2360378759E+00  7.5501014650E+00  4.1782773381E-02  4.0794719416E-02  3.8683059035E-01
  5.8600000000E+03  2.2383881059E+00  7.5467161283E+00  4.1890994131E-02  4.0898562130E-02  3.8705039706E-01
  5.8650000000E+03  2.2407388580E+00  7.5433351950E+00  4.1999402212E-02  4.1002576267E-02  3.8727001602E-01
  5.8700000000E+03  2.2430900954E+00  7.5400171301E+00  4.2107997788E-02  4.1106763669E-02  3.8748944776E-01
  5.8750000000E+03  2.2454417948E+00  7.5367138349E+00  4.2216781023E-02  4.1211123040E-02  3.8770869283E-01
  5.8800000000E+03  2.2477939561E+00  7.5334147952E+00  4.2325752080E-02  4.1315654187E-02  3.8792775176E-01
  5.8850000000E+03  2.2501465789E+00  7.5301200018E+00  4.2434911122E-02  4.1420357227E-02  3.8814662510E-01
  5.8900000000E+03  2.2524996629E+00  7.5268294457E+00  4.2544258312E-02  4.1525232278E-02  3.8836531338E-01
  5.8950000000E+03  2.2548532079E+00  7.5235431178E+00  4.2653793814E-02  4.1630279458E-02  3.8858381713E-01
  5.9000000000E+03  2.2572072134E+00  7.5202610092E+00  4.2763517790E-02  4.1735498883E-02  3.8880213689E-01
  5.9050000000E+03  2.2595616793E+00  7.5169831109E+00  4.2873430405E-02  4.1840890670E-02  3.8902027318E-01
  5.9100000000E+03  2.2619166052E+00  7.5137094138E+00  4.2983531822E-02  4.1946454936E-02  3.8923822653E-01
  5.9150000000E+03  2.2642719908E+00  7.5104399091E+00  4.3093822203E-02  4.2052191799E-02  3.8945599748E-01
  5.9200000000E+03  2.2666295306E+00  7.5071745879E+00  4.3204301712E-02  4.2158101961E-02  3.8967358653E-01
  5.9250000000E+03  2.2689877717E+00  7.5039134412E+00  4.3314970513E-02  4.2264185040E-02  3.8989099423E-01
  5.9300000000E+03  2.2713464739E+00  7.5006564603E+00  4.3425828768E-02  4.2370441070E-02  3.9010822108E-01
  5.9350000000E+03  2.2737056371E+00  7.4974036362E+00  4.3536876642E-02  4.2476870168E-02  3.9032526761E-01
  5.9400000000E+03  2.2760652609E+00  7.4941549603E+00  4.3648114297E-02  4.2583472450E-02  3.9054213433E-01
  5.9450000000E+03  2.2784253450E+00  7.4909104237E+00  4.3759541896E-02  4.2690248032E-02  3.9075882175E-01
  5.9500000000E+03  2.2807858891E+00  7.4876700177E+00  4.3871159603E-02  4.2797197031E-02  3.9097533041E-01
  5.9550000000E+03  2.2831468929E+00  7.4844337335E+00  4.3982967582E-02  4.2904319563E-02  3.9119166079E-01
  5.9600000000E+03  2.2855083562E+00  7.4812015624E+00  4.4094965995E-02  4.3011615743E-02  3.9140781342E-01
  5.9650000000E+03  2.2878702786E+00  7.4780369994E+00  4.4207155006E-02  4.3119087799E-02  3.9162378880E-01
  5.9700000000E+03  2.2902326599E+00  7.4748789539E+00  4.4319534779E-02  4.3226733842E-02  3.9183958743E-01
  5.9750000000E+03  2.2925948944E+00  7.4717248843E+00  4.4432105476E-02  4.3334553686E-02  3.9205520983E-01
  5.9800000000E+03  2.2949575408E+00  7.4685747821E+00  4.4544867260E-02  4.3442547647E-02  3.9227065650E-01
  5.9850000000E+03  2.2973206443E+00  7.4654286391E+00  4.4657820296E-02  4.3550715856E-02  3.9248592793E-01
  5.9900000000E+03  2.2996842047E+00  7.4622864471E+00  4.4770964746E-02  4.3659058429E-02  3.9270102463E-01
  5.9950000000E+03  2.3020482217E+00  7.4591481977E+00  4.4884300774E-02  4.3767575481E-02  3.9291594709E-01
  6.0000000000E+03  2.3044126950E+00  7.4560138827E+00  4.4997828544E-02  4.3876267128E-02  3.9313069581E-01
  6.0050000000E+03  2.3067776242E+00  7.4528834940E+00  4.5112345785E-02  4.3985891719E-02  3.9334527128E-01
  6.0100000000E+03  2.3091430091E+00  7.4497570233E+00  4.5227058499E-02  4.4095694232E-02  3.9355967401E-01
  6.0150000000E+03  2.3115088495E+00  7.4466344625E+00  4.5341966857E-02  4.4205674789E-02  3.9377390447E-01
  6.0200000000E+03  2.3138751449E+00  7.4435158034E+00  4.5457071028E-02  4.4315833507E-02  3.9398796316E-01
  6.0250000000E+03  2.3162418952E+00  7.4404010380E+00  4.5572371181E-02  4.4426170508E-02  3.9420185056E-01
  6.0300000000E+03  2.3186169001E+00  7.4372901582E+00  4.5687867487E-02  4.4536688790E-02  3.9441556716E-01
  6.0350000000E+03  2.3209934330E+00  7.4341831559E+00  4.5803560116E-02  4.4647386007E-02  3.9462911345E-01
  6.0400000000E+03  2.3233704307E+00  7.4310800230E+00  4.5919449237E-02  4.4758261890E-02  3.9484248991E-01
  6.0450000000E+03  2.3257478929E+00  7.4279807515E+00  4.6035535020E-02  4.4869316557E-02  3.9505569702E-01
  6.0500000000E+03  2.3281258191E+00  7.4248853335E+00  4.6151817635E-02  4.4980550128E-02  3.9526873526E-01
  6.0550000000E+03  2.3305042092E+00  7.4217937610E+00  4.6268297252E-02  4.5091962723E-02  3.9548160511E-01
  6.0600000000E+03  2.3328830629E+00  7.4187547606E+00  4.6384974041E-02  4.5203556270E-02  3.9569430704E-01
  6.0650000000E+03  2.3352623798E+00  7.4157339337E+00  4.6501848171E-02  4.5315329636E-02  3.9590684153E-01
  6.0700000000E+03  2.3376421597E+00  7.4127168247E+00  4.6618919813E-02  4.5427282406E-02  3.9611920905E-01
  6.0750000000E+03  2.3400224023E+00  7.4097034260E+00  4.6736189137E-02  4.5539414700E-02  3.9633141007E-01
  6.0800000000E+03  2.3424031072E+00  7.4066937299E+00  4.6853656311E-02  4.5651726637E-02  3.9654344507E-01
  6.0850000000E+03  2.3448271097E+00  7.4036877288E+00  4.6971321507E-02  4.5764234653E-02  3.9675531451E-01
  6.0900000000E+03  2.3472674799E+00  7.4006854152E+00  4.7089184894E-02  4.5876928719E-02  3.9696701887E-01
  6.0950000000E+03  2.3497083840E+00  7.3976867816E+00  4.7207246642E-02  4.5989802941E-02  3.9717855859E-01
  6.1000000000E+03  2.3521498217E+00  7.3946918203E+00  4.7325506920E-02  4.6102857438E-02  3.9738993416E-01
  6.1050000000E+03  2.3545917927E+00  7.3917005240E+00  4.7443965900E-02  4.6216092330E-02  3.9760114603E-01
  6.1100000000E+03  2.3570342966E+00  7.3887128850E+00  4.7562623750E-02  4.6329507735E-02  3.9781219466E-01
  6.1150000000E+03  2.3594773332E+00  7.3857288961E+00  4.7681480640E-02  4.6443103772E-02  3.9802308052E-01
  6.1200000000E+03  2.3619209020E+00  7.3827485497E+00  4.7800536741E-02  4.6556880561E-02  3.9823380405E-01
  6.1250000000E+03  2.3643650029E+00  7.3797718383E+00  4.7919792223E-02  4.6670838220E-02  3.9844436572E-01
  6.1300000000E+03  2.3668096354E+00  7.3767987547E+00  4.8039247255E-02  4.6784976867E-02  3.9865476599E-01
  6.1350000000E+03  2.3692547993E+00  7.3738292914E+00  4.8158902007E-02  4.6899296622E-02  3.9886500530E-01
  6.1400000000E+03  2.3717006114E+00  7.3708634412E+00  4.8278756649E-02  4.7013797648E-02  3.9907508411E-01
  6.1450000000E+03  2.3741470835E+00  7.3679011965E+00  4.8398811352E-02  4.7128480070E-02  3.9928500287E-01
  6.1500000000E+03  2.3765940864E+00  7.3649425502E+00  4.8519066284E-02  4.7243343955E-02  3.9949476203E-01
  6.1550000000E+03  2.3790416196E+00  7.3620039405E+00  4.8639521617E-02  4.7358390102E-02  3.9970436204E-01
  6.1600000000E+03  2.3814896829E+00  7.3591127927E+00  4.8760177520E-02  4.7473619782E-02  3.9991380334E-01
  6.1650000000E+03  2.3839382759E+00  7.3562251247E+00  4.8881034163E-02  4.7589031304E-02  4.0012308638E-01
  6.1700000000E+03  2.3863873984E+00  7.3533409294E+00  4.9002091715E-02  4.7704624785E-02  4.0033221186E-01
  6.1750000000E+03  2.3888370500E+00  7.3504601999E+00  4.9123350348E-02  4.7820400344E-02  4.0054118040E-01
  6.1800000000E+03  2.3912872305E+00  7.3475829292E+00  4.9244810230E-02  4.7936358099E-02  4.0074999245E-01
  6.1850000000E+03  2.3937379395E+00  7.3447091103E+00  4.9366471532E-02  4.8052498167E-02  4.0095864848E-01
  6.1900000000E+03  2.3961891766E+00  7.3418387364E+00  4.9488334424E-02  4.8168820666E-02  4.0116714896E-01
  6.1950000000E+03  2.3986409440E+00  7.3389718006E+00  4.9610399076E-02  4.8285325714E-02  4.0137549435E-01
  6.2000000000E+03  2.4010932565E+00  7.3361082958E+00  4.9732665658E-02  4.8402013435E-02  4.0158368510E-01
  6.2050000000E+03  2.4035460964E+00  7.3332482154E+00  4.9855134339E-02  4.8518883940E-02  4.0179172169E-01
  6.2100000000E+03  2.4059994632E+00  7.3303915523E+00  4.9977805290E-02  4.8635937344E-02  4.0199960455E-01
  6.2150000000E+03  2.4084533566E+00  7.3275382999E+00  5.0100678682E-02  4.8753173767E-02  4.0220733416E-01
  6.2200000000E+03  2.4109077764E+00  7.3246884512E+00  5.0223754682E-02  4.8870593323E-02  4.0241491097E-01
  6.2250000000E+03  2.4133627223E+00  7.3218419996E+00  5.0347033463E-02  4.8988196131E-02  4.0262233542E-01
  6.2300000000E+03  2.4158181939E+00  7.3189989381E+00  5.0470515194E-02  4.9105982308E-02  4.0282960797E-01
  6.2350000000E+03  2.4182741908E+00  7.3161592601E+00  5.0594200044E-02  4.9223951969E-02  4.0303672908E-01
  6.2400000000E+03  2.4207307129E+00  7.3133229589E+00  5.0718088184E-02  4.9342105232E-02  4.0324369918E-01
  6.2450000000E+03  2.4231877598E+00  7.3104900277E+00  5.0842179785E-02  4.9460442212E-02  4.0345051873E-01
  6.2500000000E+03  2.4256453312E+00  7.3076604597E+00  5.0966475015E-02  4.9578963027E-02  4.0365718817E-01
  6.2550000000E+03  2.4281036368E+00  7.3048607370E+00  5.1090974045E-02  4.9697669107E-02  4.0386370795E-01
  6.2600000000E+03  2.4305625778E+00  7.3020954808E+00  5.1215677045E-02  4.9816560763E-02  4.0407007850E-01
  6.2650000000E+03  2.4330220427E+00  7.2993334780E+00  5.1340584185E-02  4.9935636628E-02  4.0427630028E-01
  6.2700000000E+03  2.4354820313E+00  7.2965747221E+00  5.1465695636E-02  5.0054896819E-02  4.0448237372E-01
  6.2750000000E+03  2.4379425433E+00  7.2938192068E+00  5.1591011566E-02  5.0174341452E-02  4.0468829926E-01
  6.2800000000E+03  2.4404035783E+00  7.2910669255E+00  5.1716532147E-02  5.0293970642E-02  4.0489407734E-01
  6.2850000000E+03  2.4428651360E+00  7.2883178720E+00  5.1842257548E-02  5.0413784506E-02  4.0509970839E-01
  6.2900000000E+03  2.4453272161E+00  7.2855720399E+00  5.1968187940E-02  5.0533783158E-02  4.0530519285E-01
  6.2950000000E+03  2.4477898184E+00  7.2828294228E+00  5.2094323492E-02  5.0653966716E-02  4.0551053115E-01
  6.3000000000E+03  2.4502529425E+00  7.2800900145E+00  5.2220664374E-02  5.0774335293E-02  4.0571572372E-01
  6.3050000000E+03  2.4527165882E+00  7.2773538087E+00  5.2347210758E-02  5.0894889007E-02  4.0592077100E-01
  6.3100000000E+03  2.4551806901E+00  7.2746207991E+00  5.2473962811E-02  5.1015627943E-02  4.0612567342E-01
  6.3150000000E+03  2.4576446232E+00  7.2718909794E+00  5.2600920706E-02  5.1136551946E-02  4.0633043139E-01
  6.3200000000E+03  2.4601090759E+00  7.2691643434E+00  5.2728084612E-02  5.1257661429E-02  4.0653504535E-01
  6.3250000000E+03  2.4625740480E+00  7.2664408848E+00  5.2855454698E-02  5.1378956505E-02  4.0673951573E-01
  6.3300000000E+03  2.4650395393E+00  7.2637205975E+00  5.2983031136E-02  5.1500437291E-02  4.0694384294E-01
  6.3350000000E+03  2.4675055493E+00  7.2610034752E+00  5.3110814095E-02  5.1622103900E-02  4.0714802741E-01
  6.3400000000E+03  2.4699720778E+00  7.2582895118E+00  5.3238803745E-02  5.1743956447E-02  4.0735206957E-01
  6.3450000000E+03  2.4724391245E+00  7.2555787010E+00  5.3367000257E-02  5.1865995048E-02  4.0755596982E-01
  6.3500000000E+03  2.4749066890E+00  7.2528710369E+00  5.3495403800E-02  5.1988219816E-02  4.0775972860E-01
