#[MATERIAL DEFINITION FOR MC-GPU: interaction mean free path and sampling data from PENELOPE 2018]
#[MATERIAL NAME]
# intestine_sml                                                 
#[NOMINAL DENSITY (g/cm^3)]
#   1.04000000
#[NUMBER OF DATA VALUES]
#  23002
#[MEAN FREE PATHS (cm) (ie, average distance between interactions)]
#[Energy (eV)     | Rayleigh        | Compton         | Photoelectric   | TOTAL (+pair prod) (cm) | Rayleigh: max cumul prob F^2]
  5.0000000000E+03  1.7397731945E+00  8.2069782406E+00  2.4447445293E-02  2.4038054430E-02  3.5024323224E-01
  5.0050000000E+03  1.7418442713E+00  8.2017749741E+00  2.4521477193E-02  2.4109976353E-02  3.5050529016E-01
  5.0100000000E+03  1.7439157419E+00  8.1965801971E+00  2.4595658876E-02  2.4182039150E-02  3.5076703503E-01
  5.0150000000E+03  1.7459889140E+00  8.1913938871E+00  2.4669990497E-02  2.4254243196E-02  3.5102846756E-01
  5.0200000000E+03  1.7480632631E+00  8.1862160221E+00  2.4744472207E-02  2.4326588516E-02  3.5128958843E-01
  5.0250000000E+03  1.7501380079E+00  8.1810465799E+00  2.4819104159E-02  2.4399075081E-02  3.5155039833E-01
  5.0300000000E+03  1.7522131481E+00  8.1758855384E+00  2.4893886506E-02  2.4471703015E-02  3.5181089796E-01
  5.0350000000E+03  1.7542886835E+00  8.1707328755E+00  2.4968819401E-02  2.4544472441E-02  3.5207108800E-01
  5.0400000000E+03  1.7563646136E+00  8.1655885695E+00  2.5043902995E-02  2.4617383482E-02  3.5233096913E-01
  5.0450000000E+03  1.7584409381E+00  8.1604525985E+00  2.5119137442E-02  2.4690436259E-02  3.5259054203E-01
  5.0500000000E+03  1.7605176568E+00  8.1553249408E+00  2.5194522895E-02  2.4763630896E-02  3.5284980738E-01
  5.0550000000E+03  1.7625947693E+00  8.1502055746E+00  2.5270059506E-02  2.4836967514E-02  3.5310876585E-01
  5.0600000000E+03  1.7646724693E+00  8.1450944785E+00  2.5345747427E-02  2.4910446276E-02  3.5336741813E-01
  5.0650000000E+03  1.7667509233E+00  8.1399916308E+00  2.5421586812E-02  2.4984067337E-02  3.5362576488E-01
  5.0700000000E+03  1.7688297710E+00  8.1348970101E+00  2.5497577812E-02  2.5057830747E-02  3.5388380677E-01
  5.0750000000E+03  1.7709090120E+00  8.1298105952E+00  2.5573720582E-02  2.5131736629E-02  3.5414154447E-01
  5.0800000000E+03  1.7729886460E+00  8.1247323647E+00  2.5650015272E-02  2.5205785106E-02  3.5439897864E-01
  5.0850000000E+03  1.7750686727E+00  8.1197501235E+00  2.5726462037E-02  2.5279977150E-02  3.5465610995E-01
  5.0900000000E+03  1.7771490918E+00  8.1147843452E+00  2.5803061028E-02  2.5354312125E-02  3.5491293904E-01
  5.0950000000E+03  1.7792299029E+00  8.1098264748E+00  2.5879812399E-02  2.5428790071E-02  3.5516946659E-01
  5.1000000000E+03  1.7813111059E+00  8.1048764922E+00  2.5956716302E-02  2.5503411111E-02  3.5542569325E-01
  5.1050000000E+03  1.7833927002E+00  8.0999343770E+00  2.6033772889E-02  2.5578175365E-02  3.5568161967E-01
  5.1100000000E+03  1.7854747225E+00  8.0950001090E+00  2.6110982314E-02  2.5653082964E-02  3.5593724650E-01
  5.1150000000E+03  1.7875571360E+00  8.0900736681E+00  2.6188344729E-02  2.5728134021E-02  3.5619257438E-01
  5.1200000000E+03  1.7896399400E+00  8.0851550343E+00  2.6265860286E-02  2.5803328658E-02  3.5644760398E-01
  5.1250000000E+03  1.7917231344E+00  8.0802441876E+00  2.6343529139E-02  2.5878666996E-02  3.5670233592E-01
  5.1300000000E+03  1.7938067187E+00  8.0753411080E+00  2.6421351440E-02  2.5954149158E-02  3.5695677086E-01
  5.1350000000E+03  1.7958906926E+00  8.0704457758E+00  2.6499327342E-02  2.6029775264E-02  3.5721090942E-01
  5.1400000000E+03  1.7979750559E+00  8.0655581712E+00  2.6577456997E-02  2.6105545435E-02  3.5746475226E-01
  5.1450000000E+03  1.8000598083E+00  8.0606782744E+00  2.6655740558E-02  2.6181459794E-02  3.5771830000E-01
  5.1500000000E+03  1.8021449493E+00  8.0558060659E+00  2.6734178178E-02  2.6257518460E-02  3.5797155328E-01
  5.1550000000E+03  1.8042308245E+00  8.0509415260E+00  2.6812770010E-02  2.6333721629E-02  3.5822451273E-01
  5.1600000000E+03  1.8063173805E+00  8.0460846354E+00  2.6891516206E-02  2.6410069412E-02  3.5847717892E-01
  5.1650000000E+03  1.8084043252E+00  8.0412870216E+00  2.6970416919E-02  2.6486562427E-02  3.5872955220E-01
  5.1700000000E+03  1.8104916583E+00  8.0365384603E+00  2.7049472301E-02  2.6563200695E-02  3.5898163322E-01
  5.1750000000E+03  1.8125793794E+00  8.0317972894E+00  2.7128682506E-02  2.6639983890E-02  3.5923342269E-01
  5.1800000000E+03  1.8146674883E+00  8.0270634900E+00  2.7208047685E-02  2.6716912131E-02  3.5948492132E-01
  5.1850000000E+03  1.8167559847E+00  8.0223370438E+00  2.7287567993E-02  2.6793985539E-02  3.5973612981E-01
  5.1900000000E+03  1.8188448682E+00  8.0176179322E+00  2.7367243581E-02  2.6871204235E-02  3.5998704884E-01
  5.1950000000E+03  1.8209341386E+00  8.0129061367E+00  2.7447074602E-02  2.6948568341E-02  3.6023767913E-01
  5.2000000000E+03  1.8230237984E+00  8.0082016390E+00  2.7527061208E-02  2.7026077975E-02  3.6048802137E-01
  5.2050000000E+03  1.8251141982E+00  8.0035044207E+00  2.7607203554E-02  2.7103733338E-02  3.6073807624E-01
  5.2100000000E+03  1.8272049845E+00  7.9988144637E+00  2.7687501790E-02  2.7181534471E-02  3.6098784442E-01
  5.2150000000E+03  1.8292961569E+00  7.9941317498E+00  2.7767956071E-02  2.7259481494E-02  3.6123732662E-01
  5.2200000000E+03  1.8313877151E+00  7.9894562609E+00  2.7848566548E-02  2.7337574529E-02  3.6148652351E-01
  5.2250000000E+03  1.8334796589E+00  7.9847879788E+00  2.7929333375E-02  2.7415813695E-02  3.6173543577E-01
  5.2300000000E+03  1.8355719879E+00  7.9801268857E+00  2.8010256703E-02  2.7494199112E-02  3.6198406407E-01
  5.2350000000E+03  1.8376647019E+00  7.9754729635E+00  2.8091336687E-02  2.7572730901E-02  3.6223240910E-01
  5.2400000000E+03  1.8397578005E+00  7.9708261944E+00  2.8172573478E-02  2.7651409180E-02  3.6248047153E-01
  5.2450000000E+03  1.8418512834E+00  7.9661865607E+00  2.8253967230E-02  2.7730234070E-02  3.6272825202E-01
  5.2500000000E+03  1.8439460791E+00  7.9616381748E+00  2.8335518094E-02  2.7809206929E-02  3.6297575124E-01
  5.2550000000E+03  1.8460427381E+00  7.9571027563E+00  2.8417226224E-02  2.7888327063E-02  3.6322296987E-01
  5.2600000000E+03  1.8481397836E+00  7.9525742310E+00  2.8499091773E-02  2.7967594185E-02  3.6346990856E-01
  5.2650000000E+03  1.8502372155E+00  7.9480525820E+00  2.8581114893E-02  2.8047008413E-02  3.6371656796E-01
  5.2700000000E+03  1.8523350335E+00  7.9435377923E+00  2.8663295737E-02  2.8126569868E-02  3.6396294875E-01
  5.2750000000E+03  1.8544332372E+00  7.9390298449E+00  2.8745634458E-02  2.8206278669E-02  3.6420905158E-01
  5.2800000000E+03  1.8565318263E+00  7.9345287230E+00  2.8828131208E-02  2.8286134935E-02  3.6445487709E-01
  5.2850000000E+03  1.8586308006E+00  7.9300344099E+00  2.8910786140E-02  2.8366138786E-02  3.6470042594E-01
  5.2900000000E+03  1.8607301598E+00  7.9255468889E+00  2.8993599407E-02  2.8446290341E-02  3.6494569878E-01
  5.2950000000E+03  1.8628299036E+00  7.9210661432E+00  2.9076571162E-02  2.8526589719E-02  3.6519069625E-01
  5.3000000000E+03  1.8649297639E+00  7.9165921562E+00  2.9159701557E-02  2.8607036976E-02  3.6543541899E-01
  5.3050000000E+03  1.8670298783E+00  7.9121249114E+00  2.9242990745E-02  2.8687632263E-02  3.6567986766E-01
  5.3100000000E+03  1.8691303759E+00  7.9076643923E+00  2.9326438879E-02  2.8768375730E-02  3.6592404288E-01
  5.3150000000E+03  1.8712312564E+00  7.9032105824E+00  2.9410046112E-02  2.8849267495E-02  3.6616794530E-01
  5.3200000000E+03  1.8733325195E+00  7.8987634654E+00  2.9493812596E-02  2.8930307677E-02  3.6641157554E-01
  5.3250000000E+03  1.8754341649E+00  7.8943230249E+00  2.9577738485E-02  2.9011496394E-02  3.6665493424E-01
  5.3300000000E+03  1.8775361923E+00  7.8898931185E+00  2.9661823930E-02  2.9092833819E-02  3.6689802203E-01
  5.3350000000E+03  1.8796386015E+00  7.8855532329E+00  2.9746069085E-02  2.9174321159E-02  3.6714083954E-01
  5.3400000000E+03  1.8817413920E+00  7.8812197966E+00  2.9830474102E-02  2.9255957404E-02  3.6738338738E-01
  5.3450000000E+03  1.8838445637E+00  7.8768927939E+00  2.9915039135E-02  2.9337742672E-02  3.6762566620E-01
  5.3500000000E+03  1.8859479405E+00  7.8725722094E+00  2.9999764335E-02  2.9419677040E-02  3.6786767659E-01
  5.3550000000E+03  1.8880516718E+00  7.8682580275E+00  3.0084649857E-02  2.9501760661E-02  3.6810941919E-01
  5.3600000000E+03  1.8901557831E+00  7.8639502328E+00  3.0169695851E-02  2.9583993661E-02  3.6835089461E-01
  5.3650000000E+03  1.8922602741E+00  7.8596488099E+00  3.0254902472E-02  2.9666376156E-02  3.6859210346E-01
  5.3700000000E+03  1.8943651446E+00  7.8553537434E+00  3.0340269872E-02  2.9748908266E-02  3.6883304636E-01
  5.3750000000E+03  1.8964703943E+00  7.8510650180E+00  3.0425798204E-02  2.9831590109E-02  3.6907372391E-01
  5.3800000000E+03  1.8985760228E+00  7.8467826185E+00  3.0511487620E-02  2.9914421802E-02  3.6931413672E-01
  5.3850000000E+03  1.9006820300E+00  7.8425065296E+00  3.0597338274E-02  2.9997403463E-02  3.6955428540E-01
  5.3900000000E+03  1.9027884155E+00  7.8382367363E+00  3.0683350318E-02  3.0080535211E-02  3.6979417055E-01
  5.3950000000E+03  1.9048951790E+00  7.8339732234E+00  3.0769523905E-02  3.0163817162E-02  3.7003379277E-01
  5.4000000000E+03  1.9070029343E+00  7.8297159760E+00  3.0855859187E-02  3.0247249589E-02  3.7027315266E-01
  5.4050000000E+03  1.9091110816E+00  7.8254649789E+00  3.0942356318E-02  3.0330832460E-02  3.7051225082E-01
  5.4100000000E+03  1.9112196070E+00  7.8212202172E+00  3.1029015450E-02  3.0414565888E-02  3.7075108784E-01
  5.4150000000E+03  1.9133285100E+00  7.8169816761E+00  3.1115836736E-02  3.0498449992E-02  3.7098966431E-01
  5.4200000000E+03  1.9154377905E+00  7.8128239945E+00  3.1202820329E-02  3.0582486032E-02  3.7122798083E-01
  5.4250000000E+03  1.9175474482E+00  7.8086821493E+00  3.1289966381E-02  3.0666673145E-02  3.7146603798E-01
  5.4300000000E+03  1.9196574827E+00  7.8045463125E+00  3.1377275046E-02  3.0751011300E-02  3.7170383635E-01
  5.4350000000E+03  1.9217678938E+00  7.8004164697E+00  3.1464746476E-02  3.0835500614E-02  3.7194137652E-01
  5.4400000000E+03  1.9238786812E+00  7.7962926068E+00  3.1552380824E-02  3.0920141203E-02  3.7217865908E-01
  5.4450000000E+03  1.9259898447E+00  7.7921747096E+00  3.1640178243E-02  3.1004933185E-02  3.7241568460E-01
  5.4500000000E+03  1.9281811276E+00  7.7880627641E+00  3.1728138886E-02  3.1089897409E-02  3.7265245367E-01
  5.4550000000E+03  1.9303733725E+00  7.7839567562E+00  3.1816262905E-02  3.1175013547E-02  3.7288896686E-01
  5.4600000000E+03  1.9325660979E+00  7.7798566718E+00  3.1904550453E-02  3.1260281592E-02  3.7312522474E-01
  5.4650000000E+03  1.9347593036E+00  7.7757624971E+00  3.1993001683E-02  3.1345701661E-02  3.7336122789E-01
  5.4700000000E+03  1.9369529892E+00  7.7716742181E+00  3.2081616747E-02  3.1431273872E-02  3.7359697688E-01
  5.4750000000E+03  1.9391471544E+00  7.7675918210E+00  3.2170395800E-02  3.1516998341E-02  3.7383247227E-01
  5.4800000000E+03  1.9413417988E+00  7.7635152919E+00  3.2259338992E-02  3.1602875186E-02  3.7406771463E-01
  5.4850000000E+03  1.9435369221E+00  7.7594446171E+00  3.2348446478E-02  3.1688904524E-02  3.7430270453E-01
  5.4900000000E+03  1.9457325240E+00  7.7553797827E+00  3.2437718410E-02  3.1775086473E-02  3.7453744252E-01
  5.4950000000E+03  1.9479286041E+00  7.7513207753E+00  3.2527154941E-02  3.1861421148E-02  3.7477192918E-01
  5.5000000000E+03  1.9501289796E+00  7.7472675810E+00  3.2616756224E-02  3.1947909692E-02  3.7500616505E-01
  5.5050000000E+03  1.9523301791E+00  7.7432567025E+00  3.2706968326E-02  3.2034979702E-02  3.7524015070E-01
  5.5100000000E+03  1.9545318613E+00  7.7392966301E+00  3.2797347550E-02  3.2122205493E-02  3.7547388667E-01
  5.5150000000E+03  1.9567340261E+00  7.7353421722E+00  3.2887894054E-02  3.2209586417E-02  3.7570737353E-01
  5.5200000000E+03  1.9589366731E+00  7.7313933156E+00  3.2978607993E-02  3.2297122595E-02  3.7594061200E-01
  5.5250000000E+03  1.9611398019E+00  7.7274500475E+00  3.3069489526E-02  3.2384814147E-02  3.7617360278E-01
  5.5300000000E+03  1.9633434123E+00  7.7235123547E+00  3.3160538809E-02  3.2472661192E-02  3.7640634652E-01
  5.5350000000E+03  1.9655475038E+00  7.7195802245E+00  3.3251756000E-02  3.2560663852E-02  3.7663884388E-01
  5.5400000000E+03  1.9677520762E+00  7.7156536439E+00  3.3343141256E-02  3.2648822244E-02  3.7687109553E-01
  5.5450000000E+03  1.9699571291E+00  7.7117326001E+00  3.3434694733E-02  3.2737136490E-02  3.7710310210E-01
  5.5500000000E+03  1.9721626231E+00  7.7078170803E+00  3.3526416589E-02  3.2825606698E-02  3.7733486426E-01
  5.5550000000E+03  1.9743685837E+00  7.7039070718E+00  3.3618306981E-02  3.2914232996E-02  3.7756638265E-01
  5.5600000000E+03  1.9765750238E+00  7.7000025619E+00  3.3710366065E-02  3.3003015505E-02  3.7779765791E-01
  5.5650000000E+03  1.9787819430E+00  7.6961035378E+00  3.3802594001E-02  3.3091954345E-02  3.7802869070E-01
  5.5700000000E+03  1.9809893411E+00  7.6922099871E+00  3.3894990943E-02  3.3181049637E-02  3.7825948164E-01
  5.5750000000E+03  1.9831972176E+00  7.6883218970E+00  3.3987557049E-02  3.3270301499E-02  3.7849003137E-01
  5.5800000000E+03  1.9854055723E+00  7.6844392551E+00  3.4080292478E-02  3.3359710050E-02  3.7872034054E-01
  5.5850000000E+03  1.9876144049E+00  7.6805620487E+00  3.4173197385E-02  3.3449275410E-02  3.7895040976E-01
  5.5900000000E+03  1.9898237150E+00  7.6766902656E+00  3.4266271927E-02  3.3538997697E-02  3.7918023969E-01
  5.5950000000E+03  1.9920335023E+00  7.6728811279E+00  3.4359516263E-02  3.3628878131E-02  3.7940983093E-01
  5.6000000000E+03  1.9942438098E+00  7.6690984485E+00  3.4452930548E-02  3.3718916163E-02  3.7963918412E-01
  5.6050000000E+03  1.9964546402E+00  7.6653210073E+00  3.4546514941E-02  3.3809111510E-02  3.7986829988E-01
  5.6100000000E+03  1.9986659470E+00  7.6615487924E+00  3.4640269599E-02  3.3899464276E-02  3.8009717883E-01
  5.6150000000E+03  2.0008777297E+00  7.6577817920E+00  3.4734194677E-02  3.3989974581E-02  3.8032582159E-01
  5.6200000000E+03  2.0030899882E+00  7.6540199942E+00  3.4828290335E-02  3.4080642543E-02  3.8055422877E-01
  5.6250000000E+03  2.0053027221E+00  7.6502633871E+00  3.4922556728E-02  3.4171468281E-02  3.8078240099E-01
  5.6300000000E+03  2.0075159310E+00  7.6465119590E+00  3.5016994015E-02  3.4262451913E-02  3.8101033885E-01
  5.6350000000E+03  2.0097296146E+00  7.6427656983E+00  3.5111602351E-02  3.4353593558E-02  3.8123804298E-01
  5.6400000000E+03  2.0119437727E+00  7.6390245931E+00  3.5206381895E-02  3.4444893334E-02  3.8146551397E-01
  5.6450000000E+03  2.0141584049E+00  7.6352886319E+00  3.5301332804E-02  3.4536351359E-02  3.8169275242E-01
  5.6500000000E+03  2.0163736489E+00  7.6315578030E+00  3.5396455234E-02  3.4627967793E-02  3.8191975895E-01
  5.6550000000E+03  2.0185903248E+00  7.6278320948E+00  3.5491749344E-02  3.4719742996E-02  3.8214653414E-01
  5.6600000000E+03  2.0208074753E+00  7.6241114958E+00  3.5587215289E-02  3.4811676805E-02  3.8237307860E-01
  5.6650000000E+03  2.0230251001E+00  7.6203959945E+00  3.5682853228E-02  3.4903769339E-02  3.8259939292E-01
  5.6700000000E+03  2.0252431989E+00  7.6166855794E+00  3.5778663317E-02  3.4996020714E-02  3.8282547770E-01
  5.6750000000E+03  2.0274617712E+00  7.6129802391E+00  3.5874645714E-02  3.5088431049E-02  3.8305133352E-01
  5.6800000000E+03  2.0296808169E+00  7.6092799621E+00  3.5970800576E-02  3.5181000462E-02  3.8327696097E-01
  5.6850000000E+03  2.0319003356E+00  7.6056394480E+00  3.6067128060E-02  3.5273730246E-02  3.8350236065E-01
  5.6900000000E+03  2.0341203270E+00  7.6020243798E+00  3.6163628324E-02  3.5366619800E-02  3.8372753312E-01
  5.6950000000E+03  2.0363407907E+00  7.5984142029E+00  3.6260301524E-02  3.5459668801E-02  3.8395247898E-01
  5.7000000000E+03  2.0385617265E+00  7.5948089064E+00  3.6357147818E-02  3.5552877366E-02  3.8417719880E-01
  5.7050000000E+03  2.0407828411E+00  7.5912084795E+00  3.6454167363E-02  3.5646245525E-02  3.8440169317E-01
  5.7100000000E+03  2.0430042836E+00  7.5876129113E+00  3.6551360316E-02  3.5739773439E-02  3.8462596265E-01
  5.7150000000E+03  2.0452261966E+00  7.5840221910E+00  3.6648726835E-02  3.5833461268E-02  3.8485000782E-01
  5.7200000000E+03  2.0474485799E+00  7.5804363078E+00  3.6746267076E-02  3.5927309131E-02  3.8507382926E-01
  5.7250000000E+03  2.0496714332E+00  7.5768552511E+00  3.6843981198E-02  3.6021317144E-02  3.8529742752E-01
  5.7300000000E+03  2.0518947560E+00  7.5732790100E+00  3.6941869356E-02  3.6115485424E-02  3.8552080318E-01
  5.7350000000E+03  2.0541185481E+00  7.5697075740E+00  3.7039931709E-02  3.6209814087E-02  3.8574395680E-01
  5.7400000000E+03  2.0563428093E+00  7.5661409323E+00  3.7138168414E-02  3.6304303252E-02  3.8596688894E-01
  5.7450000000E+03  2.0585675391E+00  7.5625790745E+00  3.7236579628E-02  3.6398953034E-02  3.8618960017E-01
  5.7500000000E+03  2.0607927373E+00  7.5590219899E+00  3.7335165508E-02  3.6493763550E-02  3.8641209105E-01
  5.7550000000E+03  2.0630185152E+00  7.5554696679E+00  3.7433926212E-02  3.6588734952E-02  3.8663436212E-01
  5.7600000000E+03  2.0652455805E+00  7.5519220981E+00  3.7532861897E-02  3.6683867580E-02  3.8685641394E-01
  5.7650000000E+03  2.0674731144E+00  7.5483792700E+00  3.7631972719E-02  3.6779161293E-02  3.8707824708E-01
  5.7700000000E+03  2.0697011167E+00  7.5448411732E+00  3.7731258837E-02  3.6874616209E-02  3.8729986206E-01
  5.7750000000E+03  2.0719295869E+00  7.5413391814E+00  3.7830720408E-02  3.6970233197E-02  3.8752125946E-01
  5.7800000000E+03  2.0741585249E+00  7.5378826123E+00  3.7930357588E-02  3.7066012614E-02  3.8774243980E-01
  5.7850000000E+03  2.0763879304E+00  7.5344306142E+00  3.8030170536E-02  3.7161953599E-02  3.8796340365E-01
  5.7900000000E+03  2.0786178029E+00  7.5309831772E+00  3.8130159408E-02  3.7258056269E-02  3.8818415153E-01
  5.7950000000E+03  2.0808481423E+00  7.5275402914E+00  3.8230324362E-02  3.7354320739E-02  3.8840468398E-01
  5.8000000000E+03  2.0830789482E+00  7.5241019467E+00  3.8330665555E-02  3.7450747127E-02  3.8862500156E-01
  5.8050000000E+03  2.0853102202E+00  7.5206681334E+00  3.8431183144E-02  3.7547335547E-02  3.8884510479E-01
  5.8100000000E+03  2.0875424684E+00  7.5172388415E+00  3.8531877288E-02  3.7644086281E-02  3.8906499421E-01
  5.8150000000E+03  2.0897757541E+00  7.5138140613E+00  3.8632748142E-02  3.7740999467E-02  3.8928467035E-01
  5.8200000000E+03  2.0920095065E+00  7.5103937828E+00  3.8733795864E-02  3.7838075035E-02  3.8950413375E-01
  5.8250000000E+03  2.0942437252E+00  7.5069779963E+00  3.8835020612E-02  3.7935313101E-02  3.8972338492E-01
  5.8300000000E+03  2.0964784099E+00  7.5035666922E+00  3.8936422543E-02  3.8032713780E-02  3.8994242440E-01
  5.8350000000E+03  2.0987135605E+00  7.5001598606E+00  3.9038001815E-02  3.8130277188E-02  3.9016125272E-01
  5.8400000000E+03  2.1009491764E+00  7.4967574918E+00  3.9139758584E-02  3.8228003439E-02  3.9037987040E-01
  5.8450000000E+03  2.1031852576E+00  7.4933595763E+00  3.9241693008E-02  3.8325892649E-02  3.9059827795E-01
  5.8500000000E+03  2.1054218036E+00  7.4899661043E+00  3.9343805244E-02  3.8423944933E-02  3.9081647589E-01
  5.8550000000E+03  2.1076588141E+00  7.4865770664E+00  3.9446095450E-02  3.8522160406E-02  3.9103446471E-01
  5.8600000000E+03  2.1098962889E+00  7.4831924528E+00  3.9548563783E-02  3.8620539183E-02  3.9125224495E-01
  5.8650000000E+03  2.1121343813E+00  7.4798122541E+00  3.9651210400E-02  3.8719081430E-02  3.9146981723E-01
  5.8700000000E+03  2.1143729961E+00  7.4764951420E+00  3.9754035459E-02  3.8817788813E-02  3.9168718211E-01
  5.8750000000E+03  2.1166120746E+00  7.4731928471E+00  3.9857039117E-02  3.8916660146E-02  3.9190434020E-01
  5.8800000000E+03  2.1188516163E+00  7.4698948183E+00  3.9960221531E-02  3.9015695261E-02  3.9212129206E-01
  5.8850000000E+03  2.1210916211E+00  7.4666010464E+00  4.0063582859E-02  3.9114894274E-02  3.9233803828E-01
  5.8900000000E+03  2.1233320886E+00  7.4633115222E+00  4.0167123258E-02  3.9214257298E-02  3.9255457944E-01
  5.8950000000E+03  2.1255730186E+00  7.4600262367E+00  4.0270842886E-02  3.9313784448E-02  3.9277091611E-01
  5.9000000000E+03  2.1278144107E+00  7.4567451809E+00  4.0374741900E-02  3.9413475838E-02  3.9298704887E-01
  5.9050000000E+03  2.1300562646E+00  7.4534683456E+00  4.0478820456E-02  3.9513331582E-02  3.9320297827E-01
  5.9100000000E+03  2.1322985801E+00  7.4501957220E+00  4.0583078714E-02  3.9613351796E-02  3.9341870491E-01
  5.9150000000E+03  2.1345413568E+00  7.4469273010E+00  4.0687516829E-02  3.9713536592E-02  3.9363422933E-01
  5.9200000000E+03  2.1367855372E+00  7.4436630737E+00  4.0792134960E-02  3.9813886412E-02  3.9384955211E-01
  5.9250000000E+03  2.1390303129E+00  7.4404030313E+00  4.0896933264E-02  3.9914401092E-02  3.9406467381E-01
  5.9300000000E+03  2.1412755504E+00  7.4371471647E+00  4.1001911898E-02  4.0015080699E-02  3.9427959498E-01
  5.9350000000E+03  2.1435212492E+00  7.4338954651E+00  4.1107071019E-02  4.0115925347E-02  3.9449431619E-01
  5.9400000000E+03  2.1457674092E+00  7.4306479238E+00  4.1212410786E-02  4.0216935150E-02  3.9470883799E-01
  5.9450000000E+03  2.1480140301E+00  7.4274045318E+00  4.1317931355E-02  4.0318110221E-02  3.9492316094E-01
  5.9500000000E+03  2.1502611114E+00  7.4241652805E+00  4.1423632883E-02  4.0419450673E-02  3.9513728558E-01
  5.9550000000E+03  2.1525086530E+00  7.4209301610E+00  4.1529515529E-02  4.0520956620E-02  3.9535121247E-01
  5.9600000000E+03  2.1547566546E+00  7.4176991646E+00  4.1635579450E-02  4.0622628176E-02  3.9556494216E-01
  5.9650000000E+03  2.1570051158E+00  7.4145361052E+00  4.1741824803E-02  4.0724467379E-02  3.9577847518E-01
  5.9700000000E+03  2.1592540364E+00  7.4113795849E+00  4.1848251745E-02  4.0826472513E-02  3.9599181209E-01
  5.9750000000E+03  2.1615029302E+00  7.4082270493E+00  4.1954860434E-02  4.0928643440E-02  3.9620495343E-01
  5.9800000000E+03  2.1637522455E+00  7.4050784900E+00  4.2061651027E-02  4.1030980434E-02  3.9641789972E-01
  5.9850000000E+03  2.1660020187E+00  7.4019338987E+00  4.2168623683E-02  4.1133483621E-02  3.9663065153E-01
  5.9900000000E+03  2.1682522494E+00  7.3987932670E+00  4.2275778557E-02  4.1236153114E-02  3.9684320937E-01
  5.9950000000E+03  2.1705029374E+00  7.3956565867E+00  4.2383115808E-02  4.1338989024E-02  3.9705557378E-01
  6.0000000000E+03  2.1727540824E+00  7.3925238495E+00  4.2490635594E-02  4.1441991466E-02  3.9726774529E-01
  6.0050000000E+03  2.1750056841E+00  7.3893950472E+00  4.2599068651E-02  4.1545855454E-02  3.9747972444E-01
  6.0100000000E+03  2.1772577422E+00  7.3862701715E+00  4.2707687677E-02  4.1649889038E-02  3.9769151175E-01
  6.0150000000E+03  2.1795102564E+00  7.3831492143E+00  4.2816492834E-02  4.1754092335E-02  3.9790310775E-01
  6.0200000000E+03  2.1817632264E+00  7.3800321674E+00  4.2925484285E-02  4.1858465463E-02  3.9811451295E-01
  6.0250000000E+03  2.1840166520E+00  7.3769190227E+00  4.3034662195E-02  4.1963008538E-02  3.9832572789E-01
  6.0300000000E+03  2.1862791896E+00  7.3738097720E+00  4.3144026727E-02  4.2067724882E-02  3.9853675309E-01
  6.0350000000E+03  2.1885433740E+00  7.3707044072E+00  4.3253578043E-02  4.2172611869E-02  3.9874758905E-01
  6.0400000000E+03  2.1908080253E+00  7.3676029204E+00  4.3363316308E-02  4.2277669179E-02  3.9895823630E-01
  6.0450000000E+03  2.1930731432E+00  7.3645053034E+00  4.3473241685E-02  4.2382896929E-02  3.9916869536E-01
  6.0500000000E+03  2.1953387273E+00  7.3614115482E+00  4.3583354337E-02  4.2488295235E-02  3.9937896673E-01
  6.0550000000E+03  2.1976047775E+00  7.3583216468E+00  4.3693654428E-02  4.2593864215E-02  3.9958905092E-01
  6.0600000000E+03  2.1998712933E+00  7.3552846329E+00  4.3804142121E-02  4.2699605637E-02  3.9979894845E-01
  6.0650000000E+03  2.2021382745E+00  7.3522658909E+00  4.3914817580E-02  4.2805518473E-02  4.0000865982E-01
  6.0700000000E+03  2.2044057208E+00  7.3492508740E+00  4.4025680969E-02  4.2911602353E-02  4.0021818554E-01
  6.0750000000E+03  2.2066736320E+00  7.3462395744E+00  4.4136732450E-02  4.3017857392E-02  4.0042752611E-01
  6.0800000000E+03  2.2089420077E+00  7.3432319846E+00  4.4247972188E-02  4.3124283707E-02  4.0063668203E-01
  6.0850000000E+03  2.2112562679E+00  7.3402280969E+00  4.4359400345E-02  4.3230898775E-02  4.0084565381E-01
  6.0900000000E+03  2.2135878592E+00  7.3372279038E+00  4.4471017085E-02  4.3337691915E-02  4.0105444193E-01
  6.0950000000E+03  2.2159199924E+00  7.3342313977E+00  4.4582822573E-02  4.3444656845E-02  4.0126304690E-01
  6.1000000000E+03  2.2182526673E+00  7.3312385709E+00  4.4694816971E-02  4.3551793682E-02  4.0147146922E-01
  6.1050000000E+03  2.2205858835E+00  7.3282494161E+00  4.4807000442E-02  4.3659102542E-02  4.0167970937E-01
  6.1100000000E+03  2.2229196407E+00  7.3252639257E+00  4.4919373151E-02  4.3766583541E-02  4.0188776784E-01
  6.1150000000E+03  2.2252539386E+00  7.3222820921E+00  4.5031935261E-02  4.3874236795E-02  4.0209564514E-01
  6.1200000000E+03  2.2275887768E+00  7.3193039080E+00  4.5144686935E-02  4.3982062421E-02  4.0230334173E-01
  6.1250000000E+03  2.2299241551E+00  7.3163293659E+00  4.5257628338E-02  4.4090060535E-02  4.0251085811E-01
  6.1300000000E+03  2.2322600731E+00  7.3133584583E+00  4.5370759632E-02  4.4198231252E-02  4.0271819477E-01
  6.1350000000E+03  2.2345965305E+00  7.3103911780E+00  4.5484080981E-02  4.4306574687E-02  4.0292535219E-01
  6.1400000000E+03  2.2369336420E+00  7.3074275174E+00  4.5597592549E-02  4.4415091003E-02  4.0313233084E-01
  6.1450000000E+03  2.2392714192E+00  7.3044674692E+00  4.5711294500E-02  4.4523780320E-02  4.0333913121E-01
  6.1500000000E+03  2.2416097351E+00  7.3015110262E+00  4.5825186996E-02  4.4632642704E-02  4.0354575378E-01
  6.1550000000E+03  2.2439485894E+00  7.2985747483E+00  4.5939270202E-02  4.4741678892E-02  4.0375219901E-01
  6.1600000000E+03  2.2462879820E+00  7.2956862639E+00  4.6053544281E-02  4.4850890055E-02  4.0395846739E-01
  6.1650000000E+03  2.2486279123E+00  7.2928012649E+00  4.6168009397E-02  4.4960274653E-02  4.0416455939E-01
  6.1700000000E+03  2.2509683802E+00  7.2899197442E+00  4.6282665713E-02  4.5069832801E-02  4.0437047559E-01
  6.1750000000E+03  2.2533093853E+00  7.2870416948E+00  4.6397513393E-02  4.5179564615E-02  4.0457621654E-01
  6.1800000000E+03  2.2556509273E+00  7.2841671098E+00  4.6512552601E-02  4.5289470210E-02  4.0478178277E-01
  6.1850000000E+03  2.2579930059E+00  7.2812959821E+00  4.6627783500E-02  4.5399549700E-02  4.0498717480E-01
  6.1900000000E+03  2.2603356208E+00  7.2784283048E+00  4.6743206254E-02  4.5509803201E-02  4.0519239315E-01
  6.1950000000E+03  2.2626787718E+00  7.2755640710E+00  4.6858821026E-02  4.5620230827E-02  4.0539743831E-01
  6.2000000000E+03  2.2650224596E+00  7.2727032738E+00  4.6974627981E-02  4.5730832694E-02  4.0560231081E-01
  6.2050000000E+03  2.2673666826E+00  7.2698459063E+00  4.7090627281E-02  4.5841608915E-02  4.0580701116E-01
  6.2100000000E+03  2.2697114408E+00  7.2669919616E+00  4.7206819091E-02  4.5952559606E-02  4.0601153985E-01
  6.2150000000E+03  2.2720567336E+00  7.2641414329E+00  4.7323203575E-02  4.6063684881E-02  4.0621589741E-01
  6.2200000000E+03  2.2744025609E+00  7.2612943133E+00  4.7439780895E-02  4.6174984853E-02  4.0642008433E-01
  6.2250000000E+03  2.2767489223E+00  7.2584505960E+00  4.7556551216E-02  4.6286459639E-02  4.0662410111E-01
  6.2300000000E+03  2.2790958175E+00  7.2556102742E+00  4.7673514701E-02  4.6398109350E-02  4.0682794825E-01
  6.2350000000E+03  2.2814432463E+00  7.2527733412E+00  4.7790671514E-02  4.6509934103E-02  4.0703162626E-01
  6.2400000000E+03  2.2837912082E+00  7.2499397902E+00  4.7908021818E-02  4.6621934010E-02  4.0723513563E-01
  6.2450000000E+03  2.2861397030E+00  7.2471096145E+00  4.8025565778E-02  4.6734109186E-02  4.0743847685E-01
  6.2500000000E+03  2.2884887304E+00  7.2442828073E+00  4.8143303558E-02  4.6846459744E-02  4.0764165042E-01
  6.2550000000E+03  2.2908384731E+00  7.2414860773E+00  4.8261235320E-02  4.6958986999E-02  4.0784465683E-01
  6.2600000000E+03  2.2931888450E+00  7.2387240854E+00  4.8379361228E-02  4.7071691244E-02  4.0804749657E-01
  6.2650000000E+03  2.2955397488E+00  7.2359653508E+00  4.8497681447E-02  4.7184571237E-02  4.0825017012E-01
  6.2700000000E+03  2.2978911844E+00  7.2332098672E+00  4.8616196140E-02  4.7297627091E-02  4.0845267798E-01
  6.2750000000E+03  2.3002431514E+00  7.2304576280E+00  4.8734905471E-02  4.7410858920E-02  4.0865502062E-01
  6.2800000000E+03  2.3025956495E+00  7.2277086271E+00  4.8853809604E-02  4.7524266837E-02  4.0885719854E-01
  6.2850000000E+03  2.3049486784E+00  7.2249628578E+00  4.8972908701E-02  4.7637850955E-02  4.0905921220E-01
  6.2900000000E+03  2.3073022378E+00  7.2222203140E+00  4.9092202928E-02  4.7751611387E-02  4.0926106210E-01
  6.2950000000E+03  2.3096563274E+00  7.2194809891E+00  4.9211692448E-02  4.7865548247E-02  4.0946274870E-01
  6.3000000000E+03  2.3120109469E+00  7.2167448770E+00  4.9331377424E-02  4.7979661648E-02  4.0966427249E-01
  6.3050000000E+03  2.3143660960E+00  7.2140119712E+00  4.9451258021E-02  4.8093951703E-02  4.0986563394E-01
  6.3100000000E+03  2.3167217078E+00  7.2112822655E+00  4.9571334402E-02  4.8208418495E-02  4.1006683352E-01
  6.3150000000E+03  2.3190771406E+00  7.2085557537E+00  4.9691606732E-02  4.8323061858E-02  4.1026787170E-01
  6.3200000000E+03  2.3214331011E+00  7.2058324293E+00  4.9812075173E-02  4.8437882211E-02  4.1046874896E-01
  6.3250000000E+03  2.3237895890E+00  7.2031122863E+00  4.9932739889E-02  4.8552879666E-02  4.1066946575E-01
  6.3300000000E+03  2.3261466041E+00  7.2003953184E+00  5.0053601046E-02  4.8668054335E-02  4.1087002256E-01
  6.3350000000E+03  2.3285041460E+00  7.1976815193E+00  5.0174658805E-02  4.8783406331E-02  4.1107041983E-01
  6.3400000000E+03  2.3308622145E+00  7.1949708829E+00  5.0295913332E-02  4.8898935766E-02  4.1127065804E-01
  6.3450000000E+03  2.3332208091E+00  7.1922634030E+00  5.0417364790E-02  4.9014642752E-02  4.1147073765E-01
  6.3500000000E+03  2.3355799298E+00  7.1895590734E+00  5.0539013343E-02  4.9130527402E-02  4.1167065911E-01
