#[MATERIAL DEFINITION FOR MC-GPU: interaction mean free path and sampling data from PENELOPE 2018]
#[MATERIAL NAME]
# urine                                                         
#[NOMINAL DENSITY (g/cm^3)]
#   1.04000000
#[NUMBER OF DATA VALUES]
#  23002
#[MEAN FREE PATHS (cm) (ie, average distance between interactions)]
#[Energy (eV)     | Rayleigh        | Compton         | Photoelectric   | TOTAL (+pair prod) (cm) | Rayleigh: max cumul prob F^2]
  5.0000000000E+03  1.6474205865E+00  8.2191929598E+00  2.2736056420E-02  2.2365521938E-02  3.5303058995E-01
  5.0050000000E+03  1.6493874343E+00  8.2139502102E+00  2.2804882254E-02  2.2432444593E-02  3.5329497350E-01
  5.0100000000E+03  1.6513546630E+00  8.2087160345E+00  2.2873847301E-02  2.2499498459E-02  3.5355902306E-01
  5.0150000000E+03  1.6533233968E+00  8.2034904104E+00  2.2942951701E-02  2.2566683860E-02  3.5382273931E-01
  5.0200000000E+03  1.6552931848E+00  8.1982733153E+00  2.3012195598E-02  2.2634000830E-02  3.5408612295E-01
  5.0250000000E+03  1.6572633551E+00  8.1930647269E+00  2.3081579132E-02  2.2701449360E-02  3.5434917466E-01
  5.0300000000E+03  1.6592339075E+00  8.1878646228E+00  2.3151102446E-02  2.2769029564E-02  3.5461189514E-01
  5.0350000000E+03  1.6612048416E+00  8.1826729808E+00  2.3220765681E-02  2.2836741559E-02  3.5487428506E-01
  5.0400000000E+03  1.6631761572E+00  8.1774897787E+00  2.3290568980E-02  2.2904585459E-02  3.5513634512E-01
  5.0450000000E+03  1.6651478539E+00  8.1723149945E+00  2.3360512484E-02  2.2972561380E-02  3.5539807599E-01
  5.0500000000E+03  1.6671199314E+00  8.1671486061E+00  2.3430596335E-02  2.3040669436E-02  3.5565947835E-01
  5.0550000000E+03  1.6690923895E+00  8.1619905917E+00  2.3500820676E-02  2.3108909742E-02  3.5592055287E-01
  5.0600000000E+03  1.6710655095E+00  8.1568409294E+00  2.3571185647E-02  2.3177282467E-02  3.5618130023E-01
  5.0650000000E+03  1.6730395332E+00  8.1516995975E+00  2.3641691392E-02  2.3245787774E-02  3.5644172110E-01
  5.0700000000E+03  1.6750139377E+00  8.1465665743E+00  2.3712338051E-02  2.3314425677E-02  3.5670181615E-01
  5.0750000000E+03  1.6769887225E+00  8.1414418381E+00  2.3783125767E-02  2.3383196291E-02  3.5696158604E-01
  5.0800000000E+03  1.6789638875E+00  8.1363253676E+00  2.3854054682E-02  2.3452099730E-02  3.5722103145E-01
  5.0850000000E+03  1.6809394324E+00  8.1313043246E+00  2.3925124937E-02  2.3521136839E-02  3.5748015303E-01
  5.0900000000E+03  1.6829153567E+00  8.1262997636E+00  2.3996336675E-02  2.3590307082E-02  3.5773895145E-01
  5.0950000000E+03  1.6848916603E+00  8.1213031918E+00  2.4067690037E-02  2.3659610504E-02  3.5799742736E-01
  5.1000000000E+03  1.6868683428E+00  8.1163145887E+00  2.4139185166E-02  2.3729047218E-02  3.5825558143E-01
  5.1050000000E+03  1.6888454039E+00  8.1113339338E+00  2.4210822203E-02  2.3798617341E-02  3.5851341430E-01
  5.1100000000E+03  1.6908231463E+00  8.1063612067E+00  2.4282601290E-02  2.3868321045E-02  3.5877092662E-01
  5.1150000000E+03  1.6928012703E+00  8.1013963870E+00  2.4354522569E-02  2.3938158386E-02  3.5902811906E-01
  5.1200000000E+03  1.6947797724E+00  8.0964394544E+00  2.4426586182E-02  2.4008129479E-02  3.5928499225E-01
  5.1250000000E+03  1.6967586524E+00  8.0914903887E+00  2.4498792272E-02  2.4078234436E-02  3.5954154684E-01
  5.1300000000E+03  1.6987379099E+00  8.0865491698E+00  2.4571140979E-02  2.4148473372E-02  3.5979778348E-01
  5.1350000000E+03  1.7007175447E+00  8.0816157776E+00  2.4643632446E-02  2.4218846400E-02  3.6005370281E-01
  5.1400000000E+03  1.7026975564E+00  8.0766901921E+00  2.4716266815E-02  2.4289353636E-02  3.6030930547E-01
  5.1450000000E+03  1.7046779448E+00  8.0717723934E+00  2.4789044227E-02  2.4359995192E-02  3.6056459209E-01
  5.1500000000E+03  1.7066587095E+00  8.0668623616E+00  2.4861964826E-02  2.4430771183E-02  3.6081956332E-01
  5.1550000000E+03  1.7086402135E+00  8.0619600768E+00  2.4935028752E-02  2.4501681797E-02  3.6107421979E-01
  5.1600000000E+03  1.7106224007E+00  8.0570655195E+00  2.5008236147E-02  2.4572727137E-02  3.6132856206E-01
  5.1650000000E+03  1.7126049644E+00  8.0522300017E+00  2.5081587154E-02  2.4643907734E-02  3.6158259041E-01
  5.1700000000E+03  1.7145879041E+00  8.0474433606E+00  2.5155081915E-02  2.4715223616E-02  3.6183630552E-01
  5.1750000000E+03  1.7165712197E+00  8.0426641879E+00  2.5228720571E-02  2.4786674513E-02  3.6208970810E-01
  5.1800000000E+03  1.7185549108E+00  8.0378924646E+00  2.5302503264E-02  2.4858260537E-02  3.6234279888E-01
  5.1850000000E+03  1.7205389771E+00  8.0331281720E+00  2.5376430137E-02  2.4929981802E-02  3.6259557856E-01
  5.1900000000E+03  1.7225234183E+00  8.0283712913E+00  2.5450501330E-02  2.5001838421E-02  3.6284804787E-01
  5.1950000000E+03  1.7245082342E+00  8.0236218039E+00  2.5524716988E-02  2.5073830508E-02  3.6310020751E-01
  5.2000000000E+03  1.7264934243E+00  8.0188796912E+00  2.5599077250E-02  2.5145958175E-02  3.6335205819E-01
  5.2050000000E+03  1.7284789653E+00  8.0141449347E+00  2.5673582259E-02  2.5218221532E-02  3.6360360062E-01
  5.2100000000E+03  1.7304648801E+00  8.0094175159E+00  2.5748232158E-02  2.5290620695E-02  3.6385483550E-01
  5.2150000000E+03  1.7324511684E+00  8.0046974164E+00  2.5823027088E-02  2.5363155779E-02  3.6410576353E-01
  5.2200000000E+03  1.7344378298E+00  7.9999846179E+00  2.5897967191E-02  2.5435826896E-02  3.6435638541E-01
  5.2250000000E+03  1.7364248641E+00  7.9952791021E+00  2.5973052609E-02  2.5508634158E-02  3.6460670184E-01
  5.2300000000E+03  1.7384122710E+00  7.9905808508E+00  2.6048283483E-02  2.5581577679E-02  3.6485671351E-01
  5.2350000000E+03  1.7404000502E+00  7.9858898458E+00  2.6123659957E-02  2.5654657572E-02  3.6510642110E-01
  5.2400000000E+03  1.7423882014E+00  7.9812060692E+00  2.6199182172E-02  2.5727873949E-02  3.6535582531E-01
  5.2450000000E+03  1.7443767244E+00  7.9765295028E+00  2.6274850270E-02  2.5801226922E-02  3.6560492683E-01
  5.2500000000E+03  1.7463655842E+00  7.9719438485E+00  2.6350664392E-02  2.5874717480E-02  3.6585372633E-01
  5.2550000000E+03  1.7483547602E+00  7.9673712069E+00  2.6426624682E-02  2.5948344921E-02  3.6610222450E-01
  5.2600000000E+03  1.7503443069E+00  7.9628055330E+00  2.6502731281E-02  2.6022109307E-02  3.6635042201E-01
  5.2650000000E+03  1.7523342242E+00  7.9582468097E+00  2.6578984330E-02  2.6096010751E-02  3.6659831954E-01
  5.2700000000E+03  1.7543245116E+00  7.9536950198E+00  2.6655383972E-02  2.6170049364E-02  3.6684591776E-01
  5.2750000000E+03  1.7563151689E+00  7.9491501461E+00  2.6731930349E-02  2.6244225260E-02  3.6709321735E-01
  5.2800000000E+03  1.7583061958E+00  7.9446121717E+00  2.6808623603E-02  2.6318538551E-02  3.6734021897E-01
  5.2850000000E+03  1.7602975921E+00  7.9400810795E+00  2.6885463876E-02  2.6392989348E-02  3.6758692329E-01
  5.2900000000E+03  1.7622893575E+00  7.9355568526E+00  2.6962451309E-02  2.6467577764E-02  3.6783333098E-01
  5.2950000000E+03  1.7642814917E+00  7.9310394742E+00  2.7039586046E-02  2.6542303911E-02  3.6807944269E-01
  5.3000000000E+03  1.7662738868E+00  7.9265289273E+00  2.7116868227E-02  2.6617167876E-02  3.6832525908E-01
  5.3050000000E+03  1.7682665978E+00  7.9220251953E+00  2.7194297995E-02  2.6692169783E-02  3.6857078081E-01
  5.3100000000E+03  1.7702596767E+00  7.9175282614E+00  2.7271875492E-02  2.6767309757E-02  3.6881600853E-01
  5.3150000000E+03  1.7722531230E+00  7.9130381090E+00  2.7349600860E-02  2.6842587908E-02  3.6906094290E-01
  5.3200000000E+03  1.7742469364E+00  7.9085547215E+00  2.7427474241E-02  2.6918004350E-02  3.6930558457E-01
  5.3250000000E+03  1.7762411168E+00  7.9040780824E+00  2.7505495776E-02  2.6993559192E-02  3.6954993418E-01
  5.3300000000E+03  1.7782356638E+00  7.8996120350E+00  2.7583665608E-02  2.7069252593E-02  3.6979399238E-01
  5.3350000000E+03  1.7802305772E+00  7.8952357768E+00  2.7661983880E-02  2.7145085601E-02  3.7003775981E-01
  5.3400000000E+03  1.7822258566E+00  7.8908660392E+00  2.7740450732E-02  2.7221057356E-02  3.7028123712E-01
  5.3450000000E+03  1.7842215019E+00  7.8865028062E+00  2.7819066307E-02  2.7297167969E-02  3.7052442493E-01
  5.3500000000E+03  1.7862171402E+00  7.8821460622E+00  2.7897830747E-02  2.7373417466E-02  3.7076732389E-01
  5.3550000000E+03  1.7882130885E+00  7.8777957915E+00  2.7976744194E-02  2.7449806030E-02  3.7100993463E-01
  5.3600000000E+03  1.7902094013E+00  7.8734519783E+00  2.8055806790E-02  2.7526333787E-02  3.7125225779E-01
  5.3650000000E+03  1.7922060782E+00  7.8691146072E+00  2.8135018677E-02  2.7603000846E-02  3.7149429398E-01
  5.3700000000E+03  1.7942031190E+00  7.8647836625E+00  2.8214379997E-02  2.7679807320E-02  3.7173604385E-01
  5.3750000000E+03  1.7962005234E+00  7.8604591288E+00  2.8293890892E-02  2.7756753319E-02  3.7197750801E-01
  5.3800000000E+03  1.7981982912E+00  7.8561409906E+00  2.8373551504E-02  2.7833838953E-02  3.7221868708E-01
  5.3850000000E+03  1.8001964220E+00  7.8518292325E+00  2.8453361975E-02  2.7911064335E-02  3.7245958170E-01
  5.3900000000E+03  1.8021949156E+00  7.8475238393E+00  2.8533322447E-02  2.7988429575E-02  3.7270019247E-01
  5.3950000000E+03  1.8041937717E+00  7.8432247956E+00  2.8613433063E-02  2.8065934783E-02  3.7294052002E-01
  5.4000000000E+03  1.8061939630E+00  7.8389320861E+00  2.8693693964E-02  2.8143580306E-02  3.7318056495E-01
  5.4050000000E+03  1.8081945396E+00  7.8346456958E+00  2.8774105292E-02  2.8221366027E-02  3.7342032789E-01
  5.4100000000E+03  1.8101954791E+00  7.8303656094E+00  2.8854667189E-02  2.8299292050E-02  3.7365980943E-01
  5.4150000000E+03  1.8121967813E+00  7.8260918118E+00  2.8935379798E-02  2.8377358485E-02  3.7389901020E-01
  5.4200000000E+03  1.8141984459E+00  7.8218987651E+00  2.9016243260E-02  2.8455566429E-02  3.7413793079E-01
  5.4250000000E+03  1.8162004728E+00  7.8177215993E+00  2.9097257717E-02  2.8533915148E-02  3.7437657181E-01
  5.4300000000E+03  1.8182028616E+00  7.8135505094E+00  2.9178423312E-02  2.8612404623E-02  3.7461493386E-01
  5.4350000000E+03  1.8202056120E+00  7.8093854808E+00  2.9259740187E-02  2.8691034965E-02  3.7485301754E-01
  5.4400000000E+03  1.8222087238E+00  7.8052264992E+00  2.9341208483E-02  2.8769806283E-02  3.7509082345E-01
  5.4450000000E+03  1.8242121967E+00  7.8010735504E+00  2.9422828343E-02  2.8848718688E-02  3.7532835218E-01
  5.4500000000E+03  1.8262995573E+00  7.7969266200E+00  2.9504599908E-02  2.8927793247E-02  3.7556560433E-01
  5.4550000000E+03  1.8283878936E+00  7.7927856938E+00  2.9586523322E-02  2.9007009403E-02  3.7580258049E-01
  5.4600000000E+03  1.8304767012E+00  7.7886507576E+00  2.9668598725E-02  2.9086367142E-02  3.7603928125E-01
  5.4650000000E+03  1.8325659800E+00  7.7845217972E+00  2.9750826259E-02  2.9165866572E-02  3.7627570720E-01
  5.4700000000E+03  1.8346557295E+00  7.7803987986E+00  2.9833206068E-02  2.9245507806E-02  3.7651185892E-01
  5.4750000000E+03  1.8367459495E+00  7.7762817478E+00  2.9915738293E-02  2.9325290953E-02  3.7674773700E-01
  5.4800000000E+03  1.8388366396E+00  7.7721706307E+00  2.9998423076E-02  2.9405216124E-02  3.7698334202E-01
  5.4850000000E+03  1.8409277994E+00  7.7680654334E+00  3.0081260559E-02  2.9485283429E-02  3.7721867456E-01
  5.4900000000E+03  1.8430194288E+00  7.7639661419E+00  3.0164250884E-02  2.9565492978E-02  3.7745373519E-01
  5.4950000000E+03  1.8451115273E+00  7.7598727425E+00  3.0247394194E-02  2.9645844881E-02  3.7768852450E-01
  5.5000000000E+03  1.8472083919E+00  7.7557852212E+00  3.0330690630E-02  2.9726340362E-02  3.7792304305E-01
  5.5050000000E+03  1.8493061150E+00  7.7517400489E+00  3.0414551046E-02  2.9807373542E-02  3.7815729142E-01
  5.5100000000E+03  1.8514043126E+00  7.7477457077E+00  3.0498566772E-02  2.9888551856E-02  3.7839127019E-01
  5.5150000000E+03  1.8535029845E+00  7.7437570450E+00  3.0582737955E-02  2.9969874754E-02  3.7862497992E-01
  5.5200000000E+03  1.8556021302E+00  7.7397740475E+00  3.0667064739E-02  3.0051342349E-02  3.7885842135E-01
  5.5250000000E+03  1.8577017495E+00  7.7357967019E+00  3.0751547272E-02  3.0132954753E-02  3.7909159522E-01
  5.5300000000E+03  1.8598018421E+00  7.7318249953E+00  3.0836185699E-02  3.0214712080E-02  3.7932450221E-01
  5.5350000000E+03  1.8619024076E+00  7.7278589145E+00  3.0920980166E-02  3.0296614444E-02  3.7955714301E-01
  5.5400000000E+03  1.8640034457E+00  7.7238984465E+00  3.1005930820E-02  3.0378661956E-02  3.7978951830E-01
  5.5450000000E+03  1.8661049561E+00  7.7199435783E+00  3.1091037805E-02  3.0460854730E-02  3.8002162875E-01
  5.5500000000E+03  1.8682068929E+00  7.7159942969E+00  3.1176301269E-02  3.0543192866E-02  3.8025347504E-01
  5.5550000000E+03  1.8703092859E+00  7.7120505894E+00  3.1261721357E-02  3.0625676485E-02  3.8048505785E-01
  5.5600000000E+03  1.8724121501E+00  7.7081124430E+00  3.1347298215E-02  3.0708305703E-02  3.8071637784E-01
  5.5650000000E+03  1.8745154853E+00  7.7041798447E+00  3.1433031989E-02  3.0791080633E-02  3.8094743569E-01
  5.5700000000E+03  1.8766192911E+00  7.7002527819E+00  3.1518922826E-02  3.0874001388E-02  3.8117823207E-01
  5.5750000000E+03  1.8787235671E+00  7.6963312417E+00  3.1604970871E-02  3.0957068080E-02  3.8140876762E-01
  5.5800000000E+03  1.8808283132E+00  7.6924152115E+00  3.1691176271E-02  3.1040280821E-02  3.8163904302E-01
  5.5850000000E+03  1.8829335289E+00  7.6885046786E+00  3.1777539171E-02  3.1123639723E-02  3.8186905892E-01
  5.5900000000E+03  1.8850392140E+00  7.6845996303E+00  3.1864059717E-02  3.1207144900E-02  3.8209881598E-01
  5.5950000000E+03  1.8871453681E+00  7.6807573722E+00  3.1950738056E-02  3.1290797413E-02  3.8232831485E-01
  5.6000000000E+03  1.8892520203E+00  7.6769416639E+00  3.2037574334E-02  3.1374596797E-02  3.8255755617E-01
  5.6050000000E+03  1.8913591722E+00  7.6731312539E+00  3.2124568696E-02  3.1458542813E-02  3.8278654061E-01
  5.6100000000E+03  1.8934667923E+00  7.6693261304E+00  3.2211721289E-02  3.1542635565E-02  3.8301526879E-01
  5.6150000000E+03  1.8955748803E+00  7.6655262811E+00  3.2299032259E-02  3.1626875166E-02  3.8324374137E-01
  5.6200000000E+03  1.8976834358E+00  7.6617316942E+00  3.2386501751E-02  3.1711261726E-02  3.8347195899E-01
  5.6250000000E+03  1.8997924585E+00  7.6579423576E+00  3.2474129913E-02  3.1795795358E-02  3.8369992228E-01
  5.6300000000E+03  1.9019019482E+00  7.6541582594E+00  3.2561916890E-02  3.1880476173E-02  3.8392763187E-01
  5.6350000000E+03  1.9040119044E+00  7.6503793878E+00  3.2649862827E-02  3.1965304283E-02  3.8415508841E-01
  5.6400000000E+03  1.9061223270E+00  7.6466057309E+00  3.2737967872E-02  3.2050279800E-02  3.8438229251E-01
  5.6450000000E+03  1.9082332155E+00  7.6428372769E+00  3.2826232170E-02  3.2135402835E-02  3.8460924481E-01
  5.6500000000E+03  1.9103446902E+00  7.6390740140E+00  3.2914655868E-02  3.2220673533E-02  3.8483594594E-01
  5.6550000000E+03  1.9124574663E+00  7.6353159305E+00  3.3003239111E-02  3.2306092211E-02  3.8506239651E-01
  5.6600000000E+03  1.9145707087E+00  7.6315630147E+00  3.3091982045E-02  3.2391658743E-02  3.8528859715E-01
  5.6650000000E+03  1.9166844172E+00  7.6278152549E+00  3.3180884818E-02  3.2477373240E-02  3.8551454847E-01
  5.6700000000E+03  1.9187985913E+00  7.6240726396E+00  3.3269947574E-02  3.2563235814E-02  3.8574025109E-01
  5.6750000000E+03  1.9209132309E+00  7.6203351570E+00  3.3359170460E-02  3.2649246576E-02  3.8596570563E-01
  5.6800000000E+03  1.9230283355E+00  7.6166027957E+00  3.3448553622E-02  3.2735405635E-02  3.8619091269E-01
  5.6850000000E+03  1.9251439050E+00  7.6129304767E+00  3.3538097206E-02  3.2821714126E-02  3.8641587289E-01
  5.6900000000E+03  1.9272599389E+00  7.6092837433E+00  3.3627801359E-02  3.2908171532E-02  3.8664058683E-01
  5.6950000000E+03  1.9293764369E+00  7.6056419576E+00  3.3717666225E-02  3.2994777584E-02  3.8686505511E-01
  5.7000000000E+03  1.9314933989E+00  7.6020051084E+00  3.3807691953E-02  3.3081532394E-02  3.8708927834E-01
  5.7050000000E+03  1.9336106689E+00  7.5983731849E+00  3.3897878687E-02  3.3168436025E-02  3.8731325711E-01
  5.7100000000E+03  1.9357283259E+00  7.5947461760E+00  3.3988226574E-02  3.3255488611E-02  3.8753699203E-01
  5.7150000000E+03  1.9378464457E+00  7.5911240708E+00  3.4078735760E-02  3.3342690286E-02  3.8776048369E-01
  5.7200000000E+03  1.9399650277E+00  7.5875068583E+00  3.4169406391E-02  3.3430041160E-02  3.8798373267E-01
  5.7250000000E+03  1.9420840718E+00  7.5838945277E+00  3.4260238613E-02  3.3517541342E-02  3.8820673958E-01
  5.7300000000E+03  1.9442035777E+00  7.5802870681E+00  3.4351232573E-02  3.3605190945E-02  3.8842950500E-01
  5.7350000000E+03  1.9463235449E+00  7.5766844688E+00  3.4442388416E-02  3.3692990077E-02  3.8865202952E-01
  5.7400000000E+03  1.9484439733E+00  7.5730867189E+00  3.4533706289E-02  3.3780938849E-02  3.8887431372E-01
  5.7450000000E+03  1.9505648626E+00  7.5694938077E+00  3.4625186338E-02  3.3869037372E-02  3.8909635818E-01
  5.7500000000E+03  1.9526862123E+00  7.5659057245E+00  3.4716828709E-02  3.3957285754E-02  3.8931816349E-01
  5.7550000000E+03  1.9548080882E+00  7.5623224587E+00  3.4808633548E-02  3.4045684127E-02  3.8953973022E-01
  5.7600000000E+03  1.9569309077E+00  7.5587439995E+00  3.4900601002E-02  3.4134232727E-02  3.8976105894E-01
  5.7650000000E+03  1.9590541875E+00  7.5551703364E+00  3.4992731216E-02  3.4222931518E-02  3.8998215023E-01
  5.7700000000E+03  1.9611779273E+00  7.5516014587E+00  3.5085024337E-02  3.4311780611E-02  3.9020300466E-01
  5.7750000000E+03  1.9633021269E+00  7.5480689516E+00  3.5177480511E-02  3.4400780770E-02  3.9042362280E-01
  5.7800000000E+03  1.9654267860E+00  7.5445821949E+00  3.5270099885E-02  3.4489932314E-02  3.9064400521E-01
  5.7850000000E+03  1.9675519042E+00  7.5411000617E+00  3.5362882603E-02  3.4579234504E-02  3.9086415247E-01
  5.7900000000E+03  1.9696774812E+00  7.5376225419E+00  3.5455828814E-02  3.4668687449E-02  3.9108406514E-01
  5.7950000000E+03  1.9718035168E+00  7.5341496254E+00  3.5548938662E-02  3.4758291259E-02  3.9130374376E-01
  5.8000000000E+03  1.9739300107E+00  7.5306813022E+00  3.5642212294E-02  3.4848046043E-02  3.9152318891E-01
  5.8050000000E+03  1.9760569625E+00  7.5272175621E+00  3.5735649856E-02  3.4937951910E-02  3.9174240115E-01
  5.8100000000E+03  1.9781844399E+00  7.5237583953E+00  3.5829251495E-02  3.5028008992E-02  3.9196138101E-01
  5.8150000000E+03  1.9803124509E+00  7.5203037917E+00  3.5923017356E-02  3.5118217399E-02  3.9218012907E-01
  5.8200000000E+03  1.9824409192E+00  7.5168537415E+00  3.6016947586E-02  3.5208577218E-02  3.9239864586E-01
  5.8250000000E+03  1.9845698444E+00  7.5134082346E+00  3.6111042332E-02  3.5299088558E-02  3.9261693194E-01
  5.8300000000E+03  1.9866992263E+00  7.5099672613E+00  3.6205301738E-02  3.5389751527E-02  3.9283498786E-01
  5.8350000000E+03  1.9888290646E+00  7.5065308117E+00  3.6299725952E-02  3.5480566234E-02  3.9305281415E-01
  5.8400000000E+03  1.9909593589E+00  7.5030988760E+00  3.6394315120E-02  3.5571532788E-02  3.9327041136E-01
  5.8450000000E+03  1.9930901091E+00  7.4996714443E+00  3.6489069388E-02  3.5662651299E-02  3.9348778004E-01
  5.8500000000E+03  1.9952213147E+00  7.4962485070E+00  3.6583988903E-02  3.5753921874E-02  3.9370492071E-01
  5.8550000000E+03  1.9973529755E+00  7.4928300543E+00  3.6679073810E-02  3.5845344622E-02  3.9392183386E-01
  5.8600000000E+03  1.9994850913E+00  7.4894160765E+00  3.6774324255E-02  3.5936919652E-02  3.9413852009E-01
  5.8650000000E+03  2.0016180650E+00  7.4860065639E+00  3.6869740386E-02  3.6028647202E-02  3.9435498002E-01
  5.8700000000E+03  2.0037516475E+00  7.4826607465E+00  3.6965322348E-02  3.6120528683E-02  3.9457121427E-01
  5.8750000000E+03  2.0058856847E+00  7.4793298953E+00  3.7061070288E-02  3.6212563034E-02  3.9478722345E-01
  5.8800000000E+03  2.0080201763E+00  7.4760033584E+00  3.7156984351E-02  3.6304750119E-02  3.9500300819E-01
  5.8850000000E+03  2.0101551222E+00  7.4726811267E+00  3.7253064684E-02  3.6397090046E-02  3.9521856907E-01
  5.8900000000E+03  2.0122905219E+00  7.4693631909E+00  3.7349311434E-02  3.6489582921E-02  3.9543390673E-01
  5.8950000000E+03  2.0144263752E+00  7.4660495417E+00  3.7445724747E-02  3.6582228855E-02  3.9564902175E-01
  5.9000000000E+03  2.0165626818E+00  7.4627401701E+00  3.7542304768E-02  3.6675027954E-02  3.9586391474E-01
  5.9050000000E+03  2.0186994415E+00  7.4594350669E+00  3.7639051645E-02  3.6767980327E-02  3.9607858631E-01
  5.9100000000E+03  2.0208366539E+00  7.4561342230E+00  3.7735965523E-02  3.6861086081E-02  3.9629303704E-01
  5.9150000000E+03  2.0229743187E+00  7.4528376293E+00  3.7833046549E-02  3.6954345324E-02  3.9650726755E-01
  5.9200000000E+03  2.0251134142E+00  7.4495452768E+00  3.7930294869E-02  3.7047758492E-02  3.9672127841E-01
  5.9250000000E+03  2.0272531015E+00  7.4462571563E+00  3.8027710630E-02  3.7141325414E-02  3.9693507023E-01
  5.9300000000E+03  2.0293932418E+00  7.4429732590E+00  3.8125293977E-02  3.7235046150E-02  3.9714864358E-01
  5.9350000000E+03  2.0315338348E+00  7.4396935758E+00  3.8223045058E-02  3.7328920809E-02  3.9736199906E-01
  5.9400000000E+03  2.0336748802E+00  7.4364180977E+00  3.8320964017E-02  3.7422949497E-02  3.9757513725E-01
  5.9450000000E+03  2.0358163778E+00  7.4331468160E+00  3.8419051002E-02  3.7517132322E-02  3.9778805873E-01
  5.9500000000E+03  2.0379583272E+00  7.4298797215E+00  3.8517306159E-02  3.7611469392E-02  3.9800076409E-01
  5.9550000000E+03  2.0401007282E+00  7.4266168056E+00  3.8615729635E-02  3.7705960814E-02  3.9821325389E-01
  5.9600000000E+03  2.0422435805E+00  7.4233580593E+00  3.8714321575E-02  3.7800606694E-02  3.9842552872E-01
  5.9650000000E+03  2.0443868838E+00  7.4201680825E+00  3.8813082126E-02  3.7895408825E-02  3.9863758915E-01
  5.9700000000E+03  2.0465306378E+00  7.4169847208E+00  3.8912011434E-02  3.7990365713E-02  3.9884943574E-01
  5.9750000000E+03  2.0486747124E+00  7.4138053880E+00  3.9011109646E-02  3.8085477353E-02  3.9906106907E-01
  5.9800000000E+03  2.0508192272E+00  7.4106300758E+00  3.9110376908E-02  3.8180743894E-02  3.9927248970E-01
  5.9850000000E+03  2.0529641917E+00  7.4074587757E+00  3.9209813366E-02  3.8276165445E-02  3.9948369820E-01
  5.9900000000E+03  2.0551096056E+00  7.4042914793E+00  3.9309419167E-02  3.8371742114E-02  3.9969469512E-01
  5.9950000000E+03  2.0572554687E+00  7.4011281782E+00  3.9409194456E-02  3.8467474007E-02  3.9990548104E-01
  6.0000000000E+03  2.0594017806E+00  7.3979688640E+00  3.9509139381E-02  3.8563361230E-02  4.0011605650E-01
  6.0050000000E+03  2.0615485411E+00  7.3948135285E+00  3.9609929456E-02  3.8660047256E-02  4.0032642206E-01
  6.0100000000E+03  2.0636957499E+00  7.3916621632E+00  3.9710892339E-02  3.8756891456E-02  4.0053657828E-01
  6.0150000000E+03  2.0658434067E+00  7.3885147598E+00  3.9812028181E-02  3.8853893941E-02  4.0074652570E-01
  6.0200000000E+03  2.0679915113E+00  7.3853713102E+00  3.9913337134E-02  3.8951054821E-02  4.0095626488E-01
  6.0250000000E+03  2.0701400633E+00  7.3822318061E+00  4.0014819350E-02  3.9048374207E-02  4.0116579636E-01
  6.0300000000E+03  2.0722982342E+00  7.3790962393E+00  4.0116474981E-02  3.9145855483E-02  4.0137512069E-01
  6.0350000000E+03  2.0744581149E+00  7.3759646015E+00  4.0218304180E-02  3.9243495956E-02  4.0158423841E-01
  6.0400000000E+03  2.0766184552E+00  7.3728368845E+00  4.0320307096E-02  3.9341295293E-02  4.0179315006E-01
  6.0450000000E+03  2.0787792550E+00  7.3697130803E+00  4.0422483884E-02  3.9439253604E-02  4.0200185618E-01
  6.0500000000E+03  2.0809405138E+00  7.3665931808E+00  4.0524834694E-02  3.9537370999E-02  4.0221035731E-01
  6.0550000000E+03  2.0831022314E+00  7.3634771777E+00  4.0627359678E-02  3.9635647588E-02  4.0241865398E-01
  6.0600000000E+03  2.0852644075E+00  7.3604147879E+00  4.0730058989E-02  3.9734084931E-02  4.0262674673E-01
  6.0650000000E+03  2.0874270418E+00  7.3573709132E+00  4.0832932778E-02  3.9832682133E-02  4.0283463608E-01
  6.0700000000E+03  2.0895901342E+00  7.3543308041E+00  4.0935981197E-02  3.9931438879E-02  4.0304232256E-01
  6.0750000000E+03  2.0917536841E+00  7.3512944529E+00  4.1039204398E-02  4.0030355278E-02  4.0324980671E-01
  6.0800000000E+03  2.0939176915E+00  7.3482618517E+00  4.1142602533E-02  4.0129431439E-02  4.0345708905E-01
  6.0850000000E+03  2.0961296051E+00  7.3452329929E+00  4.1246175755E-02  4.0228684950E-02  4.0366417009E-01
  6.0900000000E+03  2.0983595969E+00  7.3422078687E+00  4.1349924214E-02  4.0328105052E-02  4.0387105036E-01
  6.0950000000E+03  2.1005901281E+00  7.3391864716E+00  4.1453848063E-02  4.0427685413E-02  4.0407773039E-01
  6.1000000000E+03  2.1028211983E+00  7.3361687939E+00  4.1557947453E-02  4.0527426144E-02  4.0428421068E-01
  6.1050000000E+03  2.1050528072E+00  7.3331548280E+00  4.1662222538E-02  4.0627327355E-02  4.0449049176E-01
  6.1100000000E+03  2.1072849546E+00  7.3301445661E+00  4.1766673468E-02  4.0727389155E-02  4.0469657413E-01
  6.1150000000E+03  2.1095176401E+00  7.3271380009E+00  4.1871300396E-02  4.0827611654E-02  4.0490245830E-01
  6.1200000000E+03  2.1117508634E+00  7.3241351247E+00  4.1976103474E-02  4.0927994964E-02  4.0510814480E-01
  6.1250000000E+03  2.1139846242E+00  7.3211359300E+00  4.2081082853E-02  4.1028539192E-02  4.0531363412E-01
  6.1300000000E+03  2.1162189222E+00  7.3181404093E+00  4.2186238687E-02  4.1129244450E-02  4.0551892677E-01
  6.1350000000E+03  2.1184537571E+00  7.3151485550E+00  4.2291571125E-02  4.1230110846E-02  4.0572402326E-01
  6.1400000000E+03  2.1206891253E+00  7.3121603598E+00  4.2397080322E-02  4.1331138489E-02  4.0592892408E-01
  6.1450000000E+03  2.1229250260E+00  7.3091758161E+00  4.2502766428E-02  4.1432327489E-02  4.0613362974E-01
  6.1500000000E+03  2.1251614627E+00  7.3061949165E+00  4.2608629596E-02  4.1533677955E-02  4.0633814074E-01
  6.1550000000E+03  2.1273984350E+00  7.3032344622E+00  4.2714669978E-02  4.1635190544E-02  4.0654245757E-01
  6.1600000000E+03  2.1296359426E+00  7.3003224830E+00  4.2820887726E-02  4.1736866291E-02  4.0674658073E-01
  6.1650000000E+03  2.1318739853E+00  7.2974140262E+00  4.2927282991E-02  4.1838703853E-02  4.0695051072E-01
  6.1700000000E+03  2.1341125627E+00  7.2945090846E+00  4.3033855926E-02  4.1940703338E-02  4.0715424801E-01
  6.1750000000E+03  2.1363516745E+00  7.2916076511E+00  4.3140606684E-02  4.2042864855E-02  4.0735779315E-01
  6.1800000000E+03  2.1385913204E+00  7.2887097187E+00  4.3247535415E-02  4.2145188515E-02  4.0756114671E-01
  6.1850000000E+03  2.1408315002E+00  7.2858152803E+00  4.3354642272E-02  4.2247674426E-02  4.0776430924E-01
  6.1900000000E+03  2.1430722134E+00  7.2829243288E+00  4.3461927408E-02  4.2350322696E-02  4.0796728130E-01
  6.1950000000E+03  2.1453134607E+00  7.2800368573E+00  4.3569390974E-02  4.2453133434E-02  4.0817006343E-01
  6.2000000000E+03  2.1475552476E+00  7.2771528587E+00  4.3677033122E-02  4.2556106753E-02  4.0837265620E-01
  6.2050000000E+03  2.1497975671E+00  7.2742723262E+00  4.3784854004E-02  4.2659242758E-02  4.0857506016E-01
  6.2100000000E+03  2.1520404190E+00  7.2713952526E+00  4.3892853773E-02  4.2762541556E-02  4.0877727584E-01
  6.2150000000E+03  2.1542838028E+00  7.2685216312E+00  4.4001032580E-02  4.2866003258E-02  4.0897930380E-01
  6.2200000000E+03  2.1565277183E+00  7.2656514550E+00  4.4109390578E-02  4.2969627971E-02  4.0918114457E-01
  6.2250000000E+03  2.1587721652E+00  7.2627847170E+00  4.4217927919E-02  4.3073415803E-02  4.0938279871E-01
  6.2300000000E+03  2.1610171431E+00  7.2599214105E+00  4.4326644755E-02  4.3177366863E-02  4.0958426674E-01
  6.2350000000E+03  2.1632626519E+00  7.2570615285E+00  4.4435541238E-02  4.3281481259E-02  4.0978554921E-01
  6.2400000000E+03  2.1655086912E+00  7.2542050642E+00  4.4544617521E-02  4.3385759099E-02  4.0998664664E-01
  6.2450000000E+03  2.1677552606E+00  7.2513520109E+00  4.4653873754E-02  4.3490200491E-02  4.1018755958E-01
  6.2500000000E+03  2.1700023600E+00  7.2485023616E+00  4.4763310091E-02  4.3594805542E-02  4.1038828855E-01
  6.2550000000E+03  2.1722499845E+00  7.2456832302E+00  4.4872926684E-02  4.3699575346E-02  4.1058883409E-01
  6.2600000000E+03  2.1744981361E+00  7.2428993479E+00  4.4982723684E-02  4.3804510201E-02  4.1078919671E-01
  6.2650000000E+03  2.1767468165E+00  7.2401187567E+00  4.5092701244E-02  4.3909609059E-02  4.1098937695E-01
  6.2700000000E+03  2.1789960257E+00  7.2373414499E+00  4.5202859517E-02  4.4014872029E-02  4.1118937532E-01
  6.2750000000E+03  2.1812457633E+00  7.2345674210E+00  4.5313198654E-02  4.4120299217E-02  4.1138919235E-01
  6.2800000000E+03  2.1834960290E+00  7.2317966637E+00  4.5423718807E-02  4.4225890732E-02  4.1158882856E-01
  6.2850000000E+03  2.1857468224E+00  7.2290291714E+00  4.5534420129E-02  4.4331646681E-02  4.1178828446E-01
  6.2900000000E+03  2.1879981434E+00  7.2262649377E+00  4.5645302771E-02  4.4437567172E-02  4.1198756057E-01
  6.2950000000E+03  2.1902499916E+00  7.2235039562E+00  4.5756366887E-02  4.4543652311E-02  4.1218665740E-01
  6.3000000000E+03  2.1925023667E+00  7.2207462205E+00  4.5867612628E-02  4.4649902205E-02  4.1238557546E-01
  6.3050000000E+03  2.1947552684E+00  7.2179917241E+00  4.5979040147E-02  4.4756316963E-02  4.1258431526E-01
  6.3100000000E+03  2.1970086787E+00  7.2152404608E+00  4.6090649595E-02  4.4862896683E-02  4.1278287731E-01
  6.3150000000E+03  2.1992624272E+00  7.2124924241E+00  4.6202441125E-02  4.4969641401E-02  4.1298126212E-01
  6.3200000000E+03  2.2015167012E+00  7.2097476078E+00  4.6314414889E-02  4.5076551302E-02  4.1317947018E-01
  6.3250000000E+03  2.2037715003E+00  7.2070060054E+00  4.6426571040E-02  4.5183626493E-02  4.1337750200E-01
  6.3300000000E+03  2.2060268243E+00  7.2042676108E+00  4.6538909730E-02  4.5290867081E-02  4.1357535808E-01
  6.3350000000E+03  2.2082826730E+00  7.2015324177E+00  4.6651431110E-02  4.5398273172E-02  4.1377303892E-01
  6.3400000000E+03  2.2105390459E+00  7.1988004196E+00  4.6764135333E-02  4.5505844873E-02  4.1397054501E-01
  6.3450000000E+03  2.2127959428E+00  7.1960716105E+00  4.6877022552E-02  4.5613582290E-02  4.1416787685E-01
  6.3500000000E+03  2.2150533635E+00  7.1933459841E+00  4.6990092918E-02  4.5721485529E-02  4.1436503493E-01
