#[MATERIAL DEFINITION FOR MC-GPU: interaction mean free path and sampling data from PENELOPE 2018]
#[MATERIAL NAME]
# cranium                                                       
#[NOMINAL DENSITY (g/cm^3)]
#   1.24500000
#[NUMBER OF DATA VALUES]
#  23002
#[MEAN FREE PATHS (cm) (ie, average distance between interactions)]
#[Energy (eV)     | Rayleigh        | Compton         | Photoelectric   | TOTAL (+pair prod) (cm) | Rayleigh: max cumul prob F^2]
  5.0000000000E+03  1.3003515316E+00  6.9644414158E+00  9.2586754341E-03  9.1810992423E-03  2.9164347154E-01
  5.0050000000E+03  1.3015756664E+00  6.9606310888E+00  9.2842938040E-03  9.2063441660E-03  2.9189604051E-01
  5.0100000000E+03  1.3027997296E+00  6.9568266481E+00  9.3099569729E-03  9.2316324533E-03  2.9214842250E-01
  5.0150000000E+03  1.3040240441E+00  6.9530280786E+00  9.3356649734E-03  9.2569641487E-03  2.9240061792E-01
  5.0200000000E+03  1.3052484804E+00  6.9492353654E+00  9.3614178377E-03  9.2823392740E-03  2.9265262718E-01
  5.0250000000E+03  1.3064728457E+00  6.9454484936E+00  9.3872155985E-03  9.3077578480E-03  2.9290445068E-01
  5.0300000000E+03  1.3076971402E+00  6.9416674486E+00  9.4130582880E-03  9.3332198988E-03  2.9315608882E-01
  5.0350000000E+03  1.3089213638E+00  6.9378922155E+00  9.4389459388E-03  9.3587254547E-03  2.9340754200E-01
  5.0400000000E+03  1.3101455166E+00  6.9341227796E+00  9.4648785831E-03  9.3842745438E-03  2.9365881062E-01
  5.0450000000E+03  1.3113695989E+00  6.9303591263E+00  9.4908562535E-03  9.4098671943E-03  2.9390989507E-01
  5.0500000000E+03  1.3125936105E+00  6.9266012410E+00  9.5168789823E-03  9.4355034344E-03  2.9416079576E-01
  5.0550000000E+03  1.3138175516E+00  6.9228491092E+00  9.5429468018E-03  9.4611832923E-03  2.9441151308E-01
  5.0600000000E+03  1.3150539399E+00  6.9191027164E+00  9.5690597444E-03  9.4869074475E-03  2.9466204743E-01
  5.0650000000E+03  1.3163135265E+00  6.9153620481E+00  9.5952178425E-03  9.5126764966E-03  2.9491239920E-01
  5.0700000000E+03  1.3175730751E+00  6.9116270900E+00  9.6214211284E-03  9.5384892627E-03  2.9516256879E-01
  5.0750000000E+03  1.3188325855E+00  6.9078978277E+00  9.6476696345E-03  9.5643457739E-03  2.9541255659E-01
  5.0800000000E+03  1.3200920578E+00  6.9041742470E+00  9.6739633929E-03  9.5902460584E-03  2.9566236299E-01
  5.0850000000E+03  1.3213514922E+00  6.9005131559E+00  9.7003024362E-03  9.6161902546E-03  2.9591198838E-01
  5.0900000000E+03  1.3226108885E+00  6.8968631113E+00  9.7266867965E-03  9.6421782922E-03  2.9616143315E-01
  5.0950000000E+03  1.3238702470E+00  6.8932185783E+00  9.7531165061E-03  9.6682101886E-03  2.9641069769E-01
  5.1000000000E+03  1.3251295675E+00  6.8895795431E+00  9.7795915974E-03  9.6942859719E-03  2.9665978239E-01
  5.1050000000E+03  1.3263888501E+00  6.8859459922E+00  9.8061121025E-03  9.7204056701E-03  2.9690868764E-01
  5.1100000000E+03  1.3276568911E+00  6.8823179119E+00  9.8326780538E-03  9.7465697852E-03  2.9715741382E-01
  5.1150000000E+03  1.3289249913E+00  6.8786952886E+00  9.8592894834E-03  9.7727778799E-03  2.9740596133E-01
  5.1200000000E+03  1.3301930620E+00  6.8750781088E+00  9.8859464237E-03  9.7990299772E-03  2.9765433053E-01
  5.1250000000E+03  1.3314611032E+00  6.8714663590E+00  9.9126489068E-03  9.8253261052E-03  2.9790252183E-01
  5.1300000000E+03  1.3327291149E+00  6.8678600257E+00  9.9393969650E-03  9.8516662919E-03  2.9815053559E-01
  5.1350000000E+03  1.3339970971E+00  6.8642590956E+00  9.9661906304E-03  9.8780505650E-03  2.9839837221E-01
  5.1400000000E+03  1.3352650499E+00  6.8606635553E+00  9.9930299353E-03  9.9044789527E-03  2.9864603202E-01
  5.1450000000E+03  1.3365329733E+00  6.8570733916E+00  1.0019914912E-02  9.9309514828E-03  2.9889351526E-01
  5.1500000000E+03  1.3378008674E+00  6.8534885911E+00  1.0046845592E-02  9.9574681831E-03  2.9914082233E-01
  5.1550000000E+03  1.3390707167E+00  6.8499091407E+00  1.0073822008E-02  9.9840291919E-03  2.9938795364E-01
  5.1600000000E+03  1.3403422165E+00  6.8463350272E+00  1.0100844193E-02  1.0010634521E-02  2.9963490958E-01
  5.1650000000E+03  1.3416136904E+00  6.8427996459E+00  1.0127912178E-02  1.0037284178E-02  2.9988169056E-01
  5.1700000000E+03  1.3428851384E+00  6.8392963901E+00  1.0155025995E-02  1.0063978176E-02  3.0012829700E-01
  5.1750000000E+03  1.3441565605E+00  6.8357983116E+00  1.0182185676E-02  1.0090716487E-02  3.0037472929E-01
  5.1800000000E+03  1.3454279569E+00  6.8323053978E+00  1.0209391254E-02  1.0117499139E-02  3.0062098783E-01
  5.1850000000E+03  1.3466993274E+00  6.8288176361E+00  1.0236642761E-02  1.0144326158E-02  3.0086707303E-01
  5.1900000000E+03  1.3479706722E+00  6.8253350140E+00  1.0263940229E-02  1.0171197573E-02  3.0111298529E-01
  5.1950000000E+03  1.3492419913E+00  6.8218575189E+00  1.0291283690E-02  1.0198113411E-02  3.0135872500E-01
  5.2000000000E+03  1.3505132755E+00  6.8183851385E+00  1.0318673176E-02  1.0225073700E-02  3.0160429257E-01
  5.2050000000E+03  1.3517834007E+00  6.8149178601E+00  1.0346108718E-02  1.0252078403E-02  3.0184968839E-01
  5.2100000000E+03  1.3530534992E+00  6.8114556716E+00  1.0373590350E-02  1.0279127612E-02  3.0209491286E-01
  5.2150000000E+03  1.3543235710E+00  6.8079985604E+00  1.0401118103E-02  1.0306221355E-02  3.0233996638E-01
  5.2200000000E+03  1.3555936162E+00  6.8045465143E+00  1.0428692009E-02  1.0333359658E-02  3.0258484934E-01
  5.2250000000E+03  1.3568636347E+00  6.8010995211E+00  1.0456312100E-02  1.0360542551E-02  3.0282956212E-01
  5.2300000000E+03  1.3581336266E+00  6.7976575686E+00  1.0483978409E-02  1.0387770060E-02  3.0307410514E-01
  5.2350000000E+03  1.3594035920E+00  6.7942206444E+00  1.0511690966E-02  1.0415042214E-02  3.0331847877E-01
  5.2400000000E+03  1.3606735308E+00  6.7907887366E+00  1.0539449805E-02  1.0442359039E-02  3.0356268341E-01
  5.2450000000E+03  1.3619434430E+00  6.7873618330E+00  1.0567292436E-02  1.0469757354E-02  3.0380671945E-01
  5.2500000000E+03  1.3632145791E+00  6.7839943308E+00  1.0595339678E-02  1.0497355950E-02  3.0405058727E-01
  5.2550000000E+03  1.3644876798E+00  6.7806356119E+00  1.0623434205E-02  1.0525000306E-02  3.0429428727E-01
  5.2600000000E+03  1.3657607570E+00  6.7772817477E+00  1.0651576050E-02  1.0552690326E-02  3.0453781984E-01
  5.2650000000E+03  1.3670338107E+00  6.7739327267E+00  1.0679765247E-02  1.0580426038E-02  3.0478118535E-01
  5.2700000000E+03  1.3683068409E+00  6.7705885372E+00  1.0708001830E-02  1.0608207472E-02  3.0502438419E-01
  5.2750000000E+03  1.3695798478E+00  6.7672491677E+00  1.0736285832E-02  1.0636034657E-02  3.0526741675E-01
  5.2800000000E+03  1.3708528312E+00  6.7639146066E+00  1.0764617288E-02  1.0663907621E-02  3.0551028342E-01
  5.2850000000E+03  1.3721257912E+00  6.7605848426E+00  1.0792996230E-02  1.0691826394E-02  3.0575298457E-01
  5.2900000000E+03  1.3733987278E+00  6.7572598641E+00  1.0821422693E-02  1.0719791004E-02  3.0599552058E-01
  5.2950000000E+03  1.3746716412E+00  6.7539396598E+00  1.0849896710E-02  1.0747801481E-02  3.0623789184E-01
  5.3000000000E+03  1.3759618753E+00  6.7506242184E+00  1.0878418315E-02  1.0775858918E-02  3.0648009872E-01
  5.3050000000E+03  1.3772604950E+00  6.7473135285E+00  1.0906987541E-02  1.0803962804E-02  3.0672214161E-01
  5.3100000000E+03  1.3785591153E+00  6.7440075788E+00  1.0935604422E-02  1.0832112655E-02  3.0696402088E-01
  5.3150000000E+03  1.3798577360E+00  6.7407063581E+00  1.0964268992E-02  1.0860308501E-02  3.0720573692E-01
  5.3200000000E+03  1.3811563573E+00  6.7374098552E+00  1.0992981284E-02  1.0888550371E-02  3.0744729008E-01
  5.3250000000E+03  1.3824549791E+00  6.7341180589E+00  1.1021741332E-02  1.0916838293E-02  3.0768868076E-01
  5.3300000000E+03  1.3837536014E+00  6.7308334625E+00  1.1050549169E-02  1.0945172303E-02  3.0792990933E-01
  5.3350000000E+03  1.3850522242E+00  6.7276074567E+00  1.1079404830E-02  1.0973552567E-02  3.0817097615E-01
  5.3400000000E+03  1.3863508475E+00  6.7243860169E+00  1.1108308347E-02  1.1001978972E-02  3.0841188161E-01
  5.3450000000E+03  1.3876494713E+00  6.7211691323E+00  1.1137259754E-02  1.1030451547E-02  3.0865262607E-01
  5.3500000000E+03  1.3889553690E+00  6.7179567924E+00  1.1166259085E-02  1.1058970781E-02  3.0889320990E-01
  5.3550000000E+03  1.3902623422E+00  6.7147489865E+00  1.1195306374E-02  1.1087536314E-02  3.0913363348E-01
  5.3600000000E+03  1.3915693238E+00  6.7115457038E+00  1.1224401653E-02  1.1116148107E-02  3.0937389718E-01
  5.3650000000E+03  1.3928763137E+00  6.7083469339E+00  1.1253544956E-02  1.1144806189E-02  3.0961400136E-01
  5.3700000000E+03  1.3941833120E+00  6.7051526662E+00  1.1282736317E-02  1.1173510589E-02  3.0985394638E-01
  5.3750000000E+03  1.3954903185E+00  6.7019628902E+00  1.1311975770E-02  1.1202261336E-02  3.1009373263E-01
  5.3800000000E+03  1.3967973334E+00  6.6987775953E+00  1.1341263347E-02  1.1231058458E-02  3.1033336046E-01
  5.3850000000E+03  1.3981043566E+00  6.6955967712E+00  1.1370599083E-02  1.1259901984E-02  3.1057283024E-01
  5.3900000000E+03  1.3994113881E+00  6.6924204074E+00  1.1399983011E-02  1.1288791943E-02  3.1081214233E-01
  5.3950000000E+03  1.4007184279E+00  6.6892484935E+00  1.1429415164E-02  1.1317728364E-02  3.1105129710E-01
  5.4000000000E+03  1.4020247258E+00  6.6860810191E+00  1.1458895575E-02  1.1346711225E-02  3.1129029490E-01
  5.4050000000E+03  1.4033310144E+00  6.6829179741E+00  1.1488424279E-02  1.1375740604E-02  3.1152913611E-01
  5.4100000000E+03  1.4046373106E+00  6.6797593480E+00  1.1518001309E-02  1.1404816530E-02  3.1176782108E-01
  5.4150000000E+03  1.4059436143E+00  6.6766051307E+00  1.1547626697E-02  1.1433939033E-02  3.1200635017E-01
  5.4200000000E+03  1.4072499256E+00  6.6735035591E+00  1.1577300478E-02  1.1463108281E-02  3.1224472375E-01
  5.4250000000E+03  1.4085562443E+00  6.6704126165E+00  1.1607022685E-02  1.1492324184E-02  3.1248294216E-01
  5.4300000000E+03  1.4098625706E+00  6.6673259511E+00  1.1636793351E-02  1.1521586749E-02  3.1272100577E-01
  5.4350000000E+03  1.4111689045E+00  6.6642435529E+00  1.1666612510E-02  1.1550896007E-02  3.1295891494E-01
  5.4400000000E+03  1.4124752458E+00  6.6611654123E+00  1.1696480195E-02  1.1580251985E-02  3.1319667002E-01
  5.4450000000E+03  1.4137815946E+00  6.6580915192E+00  1.1726396440E-02  1.1609654711E-02  3.1343427136E-01
  5.4500000000E+03  1.4151194405E+00  6.6550218642E+00  1.1756361277E-02  1.1639106346E-02  3.1367171933E-01
  5.4550000000E+03  1.4164575140E+00  6.6519564373E+00  1.1786374741E-02  1.1668604815E-02  3.1390901427E-01
  5.4600000000E+03  1.4177956251E+00  6.6488952289E+00  1.1816436864E-02  1.1698150135E-02  3.1414615654E-01
  5.4650000000E+03  1.4191337737E+00  6.6458382293E+00  1.1846547680E-02  1.1727742333E-02  3.1438314649E-01
  5.4700000000E+03  1.4204719598E+00  6.6427854290E+00  1.1876707222E-02  1.1757381439E-02  3.1461998447E-01
  5.4750000000E+03  1.4218101834E+00  6.6397368183E+00  1.1906915524E-02  1.1787067481E-02  3.1485667084E-01
  5.4800000000E+03  1.4231484445E+00  6.6366923877E+00  1.1937172618E-02  1.1816800487E-02  3.1509320594E-01
  5.4850000000E+03  1.4244867429E+00  6.6336521275E+00  1.1967478539E-02  1.1846580486E-02  3.1532959012E-01
  5.4900000000E+03  1.4258250788E+00  6.6306160284E+00  1.1997833320E-02  1.1876407506E-02  3.1556582374E-01
  5.4950000000E+03  1.4271634520E+00  6.6275840808E+00  1.2028236993E-02  1.1906281575E-02  3.1580190713E-01
  5.5000000000E+03  1.4285011816E+00  6.6245562753E+00  1.2058689592E-02  1.1936202676E-02  3.1603784065E-01
  5.5050000000E+03  1.4298388870E+00  6.6215561932E+00  1.2089324728E-02  1.1966301828E-02  3.1627362464E-01
  5.5100000000E+03  1.4311766290E+00  6.6185893241E+00  1.2120009402E-02  1.1996448735E-02  3.1650925944E-01
  5.5150000000E+03  1.4325144074E+00  6.6156264734E+00  1.2150743645E-02  1.2026643330E-02  3.1674474541E-01
  5.5200000000E+03  1.4338522223E+00  6.6126676323E+00  1.2181527493E-02  1.2056885642E-02  3.1698008289E-01
  5.5250000000E+03  1.4351900737E+00  6.6097127917E+00  1.2212360980E-02  1.2087175700E-02  3.1721527222E-01
  5.5300000000E+03  1.4365279615E+00  6.6067619424E+00  1.2243244139E-02  1.2117513534E-02  3.1745031374E-01
  5.5350000000E+03  1.4378658856E+00  6.6038150756E+00  1.2274177005E-02  1.2147899173E-02  3.1768520779E-01
  5.5400000000E+03  1.4392038461E+00  6.6008721822E+00  1.2305159612E-02  1.2178332646E-02  3.1791995472E-01
  5.5450000000E+03  1.4405418429E+00  6.5979332534E+00  1.2336191994E-02  1.2208813981E-02  3.1815455487E-01
  5.5500000000E+03  1.4418913264E+00  6.5949982802E+00  1.2367274185E-02  1.2239344033E-02  3.1838900857E-01
  5.5550000000E+03  1.4432447166E+00  6.5920672537E+00  1.2398406220E-02  1.2269922290E-02  3.1862331616E-01
  5.5600000000E+03  1.4445981578E+00  6.5891401651E+00  1.2429588131E-02  1.2300548505E-02  3.1885747799E-01
  5.5650000000E+03  1.4459516500E+00  6.5862170056E+00  1.2460819954E-02  1.2331222707E-02  3.1909149439E-01
  5.5700000000E+03  1.4473051930E+00  6.5832977663E+00  1.2492101722E-02  1.2361944925E-02  3.1932536569E-01
  5.5750000000E+03  1.4486587869E+00  6.5803824385E+00  1.2523433469E-02  1.2392715188E-02  3.1955909224E-01
  5.5800000000E+03  1.4500124316E+00  6.5774710135E+00  1.2554815230E-02  1.2423533523E-02  3.1979267437E-01
  5.5850000000E+03  1.4513661271E+00  6.5745634825E+00  1.2586247037E-02  1.2454399962E-02  3.2002611242E-01
  5.5900000000E+03  1.4527198732E+00  6.5716598369E+00  1.2617728926E-02  1.2485314532E-02  3.2025940671E-01
  5.5950000000E+03  1.4540736701E+00  6.5687970424E+00  1.2649260931E-02  1.2516277397E-02  3.2049255758E-01
  5.6000000000E+03  1.4554357437E+00  6.5659517264E+00  1.2680843084E-02  1.2547289113E-02  3.2072556536E-01
  5.6050000000E+03  1.4568066502E+00  6.5631101805E+00  1.2712475421E-02  1.2578349708E-02  3.2095843040E-01
  5.6100000000E+03  1.4581776238E+00  6.5602723964E+00  1.2744157975E-02  1.2609458560E-02  3.2119115301E-01
  5.6150000000E+03  1.4595486646E+00  6.5574383658E+00  1.2775890781E-02  1.2640615700E-02  3.2142373352E-01
  5.6200000000E+03  1.4609197724E+00  6.5546080803E+00  1.2807673871E-02  1.2671821154E-02  3.2165617228E-01
  5.6250000000E+03  1.4622909472E+00  6.5517815318E+00  1.2839507280E-02  1.2703074954E-02  3.2188846960E-01
  5.6300000000E+03  1.4636621890E+00  6.5489587118E+00  1.2871391043E-02  1.2734377126E-02  3.2212062588E-01
  5.6350000000E+03  1.4650334976E+00  6.5461396123E+00  1.2903325192E-02  1.2765727700E-02  3.2235264169E-01
  5.6400000000E+03  1.4664048731E+00  6.5433242251E+00  1.2935309762E-02  1.2797126705E-02  3.2258451742E-01
  5.6450000000E+03  1.4677763154E+00  6.5405125418E+00  1.2967344787E-02  1.2828574170E-02  3.2281625343E-01
  5.6500000000E+03  1.4691479273E+00  6.5377045545E+00  1.2999430300E-02  1.2860070130E-02  3.2304785008E-01
  5.6550000000E+03  1.4705203200E+00  6.5349002550E+00  1.3031566336E-02  1.2891614663E-02  3.2327930772E-01
  5.6600000000E+03  1.4718927802E+00  6.5320996351E+00  1.3063752928E-02  1.2923207741E-02  3.2351062670E-01
  5.6650000000E+03  1.4732653077E+00  6.5293026868E+00  1.3095990110E-02  1.2954849395E-02  3.2374180737E-01
  5.6700000000E+03  1.4746379025E+00  6.5265094021E+00  1.3128277917E-02  1.2986539651E-02  3.2397285009E-01
  5.6750000000E+03  1.4760105646E+00  6.5237197730E+00  1.3160616381E-02  1.3018278540E-02  3.2420375520E-01
  5.6800000000E+03  1.4773832938E+00  6.5209337913E+00  1.3193005537E-02  1.3050066090E-02  3.2443452305E-01
  5.6850000000E+03  1.4787560902E+00  6.5181867916E+00  1.3225445419E-02  1.3081902471E-02  3.2466515400E-01
  5.6900000000E+03  1.4801289536E+00  6.5154566097E+00  1.3257936060E-02  1.3113787626E-02  3.2489564840E-01
  5.6950000000E+03  1.4815018841E+00  6.5127299679E+00  1.3290477495E-02  1.3145721529E-02  3.2512600658E-01
  5.7000000000E+03  1.4828748815E+00  6.5100068586E+00  1.3323069757E-02  1.3177704209E-02  3.2535622890E-01
  5.7050000000E+03  1.4842466131E+00  6.5072872739E+00  1.3355712879E-02  1.3209735589E-02  3.2558631570E-01
  5.7100000000E+03  1.4856177595E+00  6.5045712064E+00  1.3388406896E-02  1.3241815750E-02  3.2581626733E-01
  5.7150000000E+03  1.4869889707E+00  6.5018586483E+00  1.3421151842E-02  1.3273944774E-02  3.2604608413E-01
  5.7200000000E+03  1.4883602467E+00  6.4991495921E+00  1.3453947749E-02  1.3306122687E-02  3.2627576645E-01
  5.7250000000E+03  1.4897315875E+00  6.4964440302E+00  1.3486794653E-02  1.3338349519E-02  3.2650531463E-01
  5.7300000000E+03  1.4911029930E+00  6.4937419551E+00  1.3519692587E-02  1.3370625298E-02  3.2673472900E-01
  5.7350000000E+03  1.4924744631E+00  6.4910433591E+00  1.3552641584E-02  1.3402950052E-02  3.2696400992E-01
  5.7400000000E+03  1.4938459979E+00  6.4883482349E+00  1.3585641678E-02  1.3435323810E-02  3.2719315772E-01
  5.7450000000E+03  1.4952175972E+00  6.4856565748E+00  1.3618692903E-02  1.3467746601E-02  3.2742217274E-01
  5.7500000000E+03  1.4965892610E+00  6.4829683716E+00  1.3651795293E-02  1.3500218452E-02  3.2765105532E-01
  5.7550000000E+03  1.4979617014E+00  6.4802836176E+00  1.3684948882E-02  1.3532739451E-02  3.2787980580E-01
  5.7600000000E+03  1.4993394316E+00  6.4776023056E+00  1.3718153702E-02  1.3565309995E-02  3.2810842452E-01
  5.7650000000E+03  1.5007172318E+00  6.4749244280E+00  1.3751409788E-02  1.3597929688E-02  3.2833691181E-01
  5.7700000000E+03  1.5020951021E+00  6.4722499776E+00  1.3784717174E-02  1.3630598558E-02  3.2856526801E-01
  5.7750000000E+03  1.5034730423E+00  6.4695992176E+00  1.3818075893E-02  1.3663316725E-02  3.2879349346E-01
  5.7800000000E+03  1.5048510524E+00  6.4669781691E+00  1.3851485979E-02  1.3696084245E-02  3.2902158848E-01
  5.7850000000E+03  1.5062291324E+00  6.4643604475E+00  1.3884947465E-02  1.3728901029E-02  3.2924955342E-01
  5.7900000000E+03  1.5076072821E+00  6.4617460457E+00  1.3918460386E-02  1.3761767106E-02  3.2947738861E-01
  5.7950000000E+03  1.5089855016E+00  6.4591349566E+00  1.3952024774E-02  1.3794682504E-02  3.2970509437E-01
  5.8000000000E+03  1.5103637907E+00  6.4565271731E+00  1.3985640664E-02  1.3827647251E-02  3.2993267105E-01
  5.8050000000E+03  1.5117421495E+00  6.4539226882E+00  1.4019308089E-02  1.3860661375E-02  3.3016011897E-01
  5.8100000000E+03  1.5131207521E+00  6.4513214949E+00  1.4053027083E-02  1.3893724919E-02  3.3038743846E-01
  5.8150000000E+03  1.5144996194E+00  6.4487235863E+00  1.4086797679E-02  1.3926837914E-02  3.3061462985E-01
  5.8200000000E+03  1.5158785565E+00  6.4461289553E+00  1.4120619911E-02  1.3960000371E-02  3.3084169348E-01
  5.8250000000E+03  1.5172575633E+00  6.4435375950E+00  1.4154493813E-02  1.3993212319E-02  3.3106862966E-01
  5.8300000000E+03  1.5186366398E+00  6.4409494985E+00  1.4188419417E-02  1.4026473784E-02  3.3129543873E-01
  5.8350000000E+03  1.5200157860E+00  6.4383646588E+00  1.4222396759E-02  1.4059784797E-02  3.3152212102E-01
  5.8400000000E+03  1.5213950017E+00  6.4357830692E+00  1.4256425871E-02  1.4093145384E-02  3.3174867684E-01
  5.8450000000E+03  1.5227742870E+00  6.4332047227E+00  1.4290506786E-02  1.4126555573E-02  3.3197510653E-01
  5.8500000000E+03  1.5241536417E+00  6.4306296125E+00  1.4324639539E-02  1.4160015394E-02  3.3220141041E-01
  5.8550000000E+03  1.5255330659E+00  6.4280577317E+00  1.4358824164E-02  1.4193524873E-02  3.3242758881E-01
  5.8600000000E+03  1.5269125593E+00  6.4254890736E+00  1.4393060692E-02  1.4227084039E-02  3.3265364205E-01
  5.8650000000E+03  1.5282914405E+00  6.4229236314E+00  1.4427349159E-02  1.4260692861E-02  3.3287957044E-01
  5.8700000000E+03  1.5296701304E+00  6.4203992923E+00  1.4461689597E-02  1.4294351590E-02  3.3310537432E-01
  5.8750000000E+03  1.5310488885E+00  6.4178848895E+00  1.4496082040E-02  1.4328060125E-02  3.3333105401E-01
  5.8800000000E+03  1.5324277149E+00  6.4153736092E+00  1.4530526522E-02  1.4361818461E-02  3.3355660982E-01
  5.8850000000E+03  1.5338066094E+00  6.4128654448E+00  1.4565023077E-02  1.4395626625E-02  3.3378204208E-01
  5.8900000000E+03  1.5351855721E+00  6.4103603899E+00  1.4599571736E-02  1.4429484645E-02  3.3400735110E-01
  5.8950000000E+03  1.5365646028E+00  6.4078584379E+00  1.4634172535E-02  1.4463392549E-02  3.3423253721E-01
  5.9000000000E+03  1.5379437016E+00  6.4053595823E+00  1.4668825506E-02  1.4497350365E-02  3.3445760072E-01
  5.9050000000E+03  1.5393228683E+00  6.4028638168E+00  1.4703530684E-02  1.4531358121E-02  3.3468254195E-01
  5.9100000000E+03  1.5407021030E+00  6.4003711348E+00  1.4738288101E-02  1.4565415845E-02  3.3490736122E-01
  5.9150000000E+03  1.5420814055E+00  6.3978815300E+00  1.4773097790E-02  1.4599523565E-02  3.3513205884E-01
  5.9200000000E+03  1.5434624619E+00  6.3953949960E+00  1.4807959787E-02  1.4633681459E-02  3.3535663514E-01
  5.9250000000E+03  1.5448438265E+00  6.3929115264E+00  1.4842874123E-02  1.4667889427E-02  3.3558109042E-01
  5.9300000000E+03  1.5462252606E+00  6.3904311148E+00  1.4877840832E-02  1.4702147476E-02  3.3580542499E-01
  5.9350000000E+03  1.5476067642E+00  6.3879537549E+00  1.4912859948E-02  1.4736455632E-02  3.3602963919E-01
  5.9400000000E+03  1.5489883372E+00  6.3854794404E+00  1.4947931504E-02  1.4770813925E-02  3.3625373330E-01
  5.9450000000E+03  1.5503699795E+00  6.3830081649E+00  1.4983055534E-02  1.4805222380E-02  3.3647770766E-01
  5.9500000000E+03  1.5517516910E+00  6.3805399223E+00  1.5018232070E-02  1.4839681027E-02  3.3670156257E-01
  5.9550000000E+03  1.5531334719E+00  6.3780747061E+00  1.5053461147E-02  1.4874189893E-02  3.3692529835E-01
  5.9600000000E+03  1.5545153219E+00  6.3756125103E+00  1.5088742797E-02  1.4908749005E-02  3.3714891529E-01
  5.9650000000E+03  1.5558972410E+00  6.3731945321E+00  1.5124077054E-02  1.4943358618E-02  3.3737241372E-01
  5.9700000000E+03  1.5572792292E+00  6.3707811368E+00  1.5159463952E-02  1.4978018544E-02  3.3759579395E-01
  5.9750000000E+03  1.5586861237E+00  6.3683706747E+00  1.5194903523E-02  1.5012731107E-02  3.3781905628E-01
  5.9800000000E+03  1.5600949813E+00  6.3659631398E+00  1.5230395802E-02  1.5047494217E-02  3.3804220101E-01
  5.9850000000E+03  1.5615039331E+00  6.3635585260E+00  1.5265940821E-02  1.5082307732E-02  3.3826522847E-01
  5.9900000000E+03  1.5629129793E+00  6.3611568274E+00  1.5301538614E-02  1.5117171677E-02  3.3848813896E-01
  5.9950000000E+03  1.5643221197E+00  6.3587580381E+00  1.5337189213E-02  1.5152086081E-02  3.3871093277E-01
  6.0000000000E+03  1.5657313542E+00  6.3563621520E+00  1.5372892654E-02  1.5187050971E-02  3.3893361023E-01
  6.0050000000E+03  1.5671406828E+00  6.3539691633E+00  1.5408997820E-02  1.5222406831E-02  3.3915617163E-01
  6.0100000000E+03  1.5685501053E+00  6.3515790660E+00  1.5445157250E-02  1.5257814528E-02  3.3937861728E-01
  6.0150000000E+03  1.5699596218E+00  6.3491918542E+00  1.5481370979E-02  1.5293274093E-02  3.3960094749E-01
  6.0200000000E+03  1.5713692321E+00  6.3468075221E+00  1.5517639044E-02  1.5328785554E-02  3.3982316255E-01
  6.0250000000E+03  1.5727789362E+00  6.3444260638E+00  1.5553961478E-02  1.5364348943E-02  3.4004526277E-01
  6.0300000000E+03  1.5741907094E+00  6.3420474735E+00  1.5590338319E-02  1.5399964476E-02  3.4026724846E-01
  6.0350000000E+03  1.5756028475E+00  6.3396717453E+00  1.5626769601E-02  1.5435632021E-02  3.4048911992E-01
  6.0400000000E+03  1.5770150814E+00  6.3372988734E+00  1.5663255359E-02  1.5471351583E-02  3.4071087744E-01
  6.0450000000E+03  1.5784274110E+00  6.3349288520E+00  1.5699795630E-02  1.5507123190E-02  3.4093252133E-01
  6.0500000000E+03  1.5798398361E+00  6.3325616754E+00  1.5736390448E-02  1.5542946872E-02  3.4115405189E-01
  6.0550000000E+03  1.5812523567E+00  6.3301973377E+00  1.5773039849E-02  1.5578822658E-02  3.4137546942E-01
  6.0600000000E+03  1.5826649727E+00  6.3278675079E+00  1.5809743869E-02  1.5614750770E-02  3.4159677421E-01
  6.0650000000E+03  1.5840776841E+00  6.3255498313E+00  1.5846502542E-02  1.5650731104E-02  3.4181796658E-01
  6.0700000000E+03  1.5854904908E+00  6.3232349125E+00  1.5883315904E-02  1.5686763633E-02  3.4203904681E-01
  6.0750000000E+03  1.5869033927E+00  6.3209227459E+00  1.5920183990E-02  1.5722848386E-02  3.4226001520E-01
  6.0800000000E+03  1.5883163898E+00  6.3186133259E+00  1.5957106837E-02  1.5758985391E-02  3.4248087205E-01
  6.0850000000E+03  1.5897467993E+00  6.3163066471E+00  1.5994084478E-02  1.5795176388E-02  3.4270161766E-01
  6.0900000000E+03  1.5911837289E+00  6.3140027039E+00  1.6031116950E-02  1.5831420343E-02  3.4292225232E-01
  6.0950000000E+03  1.5926207763E+00  6.3117014909E+00  1.6068204288E-02  1.5867716653E-02  3.4314277633E-01
  6.1000000000E+03  1.5940579417E+00  6.3094030026E+00  1.6105346527E-02  1.5904065349E-02  3.4336318999E-01
  6.1050000000E+03  1.5954952248E+00  6.3071072335E+00  1.6142543702E-02  1.5940466459E-02  3.4358349358E-01
  6.1100000000E+03  1.5969326256E+00  6.3048141782E+00  1.6179795849E-02  1.5976920013E-02  3.4380368741E-01
  6.1150000000E+03  1.5983701439E+00  6.3025238313E+00  1.6217103004E-02  1.6013426040E-02  3.4402377176E-01
  6.1200000000E+03  1.5998077798E+00  6.3002361873E+00  1.6254465200E-02  1.6049984569E-02  3.4424374693E-01
  6.1250000000E+03  1.6012455331E+00  6.2979512409E+00  1.6291882475E-02  1.6086595630E-02  3.4446361321E-01
  6.1300000000E+03  1.6026834038E+00  6.2956689867E+00  1.6329354863E-02  1.6123259251E-02  3.4468337090E-01
  6.1350000000E+03  1.6041213917E+00  6.2933894193E+00  1.6366882398E-02  1.6159975461E-02  3.4490302028E-01
  6.1400000000E+03  1.6055592499E+00  6.2911125333E+00  1.6404465118E-02  1.6196744265E-02  3.4512256165E-01
  6.1450000000E+03  1.6069969532E+00  6.2888383235E+00  1.6442103056E-02  1.6233565690E-02  3.4534199529E-01
  6.1500000000E+03  1.6084347729E+00  6.2865667845E+00  1.6479796249E-02  1.6270439790E-02  3.4556132150E-01
  6.1550000000E+03  1.6098727090E+00  6.2843086221E+00  1.6517544730E-02  1.6307366669E-02  3.4578054056E-01
  6.1600000000E+03  1.6113107615E+00  6.2820816996E+00  1.6555348537E-02  1.6344346476E-02  3.4599965277E-01
  6.1650000000E+03  1.6127489302E+00  6.2798573721E+00  1.6593207703E-02  1.6381379049E-02  3.4621865842E-01
  6.1700000000E+03  1.6141872150E+00  6.2776356346E+00  1.6631122264E-02  1.6418464417E-02  3.4643755778E-01
  6.1750000000E+03  1.6156256159E+00  6.2754164818E+00  1.6669092256E-02  1.6455602610E-02  3.4665635115E-01
  6.1800000000E+03  1.6170641327E+00  6.2731999086E+00  1.6707117713E-02  1.6492793655E-02  3.4687503882E-01
  6.1850000000E+03  1.6185027655E+00  6.2709859101E+00  1.6745198671E-02  1.6530037583E-02  3.4709362108E-01
  6.1900000000E+03  1.6199415140E+00  6.2687744811E+00  1.6783335164E-02  1.6567334421E-02  3.4731209820E-01
  6.1950000000E+03  1.6213802821E+00  6.2665656166E+00  1.6821527229E-02  1.6604684189E-02  3.4753047047E-01
  6.2000000000E+03  1.6228184464E+00  6.2643593115E+00  1.6859774900E-02  1.6642086850E-02  3.4774873818E-01
  6.2050000000E+03  1.6242567255E+00  6.2621555609E+00  1.6898078213E-02  1.6679542509E-02  3.4796690162E-01
  6.2100000000E+03  1.6256951193E+00  6.2599543596E+00  1.6936437202E-02  1.6717051193E-02  3.4818496107E-01
  6.2150000000E+03  1.6271336276E+00  6.2577557027E+00  1.6974851904E-02  1.6754612932E-02  3.4840291681E-01
  6.2200000000E+03  1.6285722505E+00  6.2555595852E+00  1.7013322352E-02  1.6792227755E-02  3.4862076912E-01
  6.2250000000E+03  1.6300109878E+00  6.2533660022E+00  1.7051848582E-02  1.6829895691E-02  3.4883851829E-01
  6.2300000000E+03  1.6314498394E+00  6.2511749487E+00  1.7090430630E-02  1.6867616767E-02  3.4905616460E-01
  6.2350000000E+03  1.6328888054E+00  6.2489864197E+00  1.7129068530E-02  1.6905391014E-02  3.4927370833E-01
  6.2400000000E+03  1.6343278855E+00  6.2468004103E+00  1.7167762317E-02  1.6943218460E-02  3.4949114977E-01
  6.2450000000E+03  1.6357670797E+00  6.2446169156E+00  1.7206512027E-02  1.6981099133E-02  3.4970848919E-01
  6.2500000000E+03  1.6372063879E+00  6.2424359307E+00  1.7245317695E-02  1.7019033063E-02  3.4992572688E-01
  6.2550000000E+03  1.6386454070E+00  6.2402747398E+00  1.7284179356E-02  1.7057020363E-02  3.5014286311E-01
  6.2600000000E+03  1.6400843263E+00  6.2381363609E+00  1.7323097045E-02  1.7095061107E-02  3.5035989816E-01
  6.2650000000E+03  1.6415233587E+00  6.2360004211E+00  1.7362070797E-02  1.7133155196E-02  3.5057683232E-01
  6.2700000000E+03  1.6429625042E+00  6.2338669158E+00  1.7401100647E-02  1.7171302658E-02  3.5079366586E-01
  6.2750000000E+03  1.6444017628E+00  6.2317358403E+00  1.7440186630E-02  1.7209503522E-02  3.5101039907E-01
  6.2800000000E+03  1.6458411343E+00  6.2296071897E+00  1.7479328782E-02  1.7247757816E-02  3.5122703221E-01
  6.2850000000E+03  1.6472806186E+00  6.2274809595E+00  1.7518527137E-02  1.7286065569E-02  3.5144356557E-01
  6.2900000000E+03  1.6487202157E+00  6.2253571451E+00  1.7557781731E-02  1.7324426810E-02  3.5165999942E-01
  6.2950000000E+03  1.6501599256E+00  6.2232357416E+00  1.7597092598E-02  1.7362841567E-02  3.5187633404E-01
  6.3000000000E+03  1.6515997480E+00  6.2211167445E+00  1.7636459773E-02  1.7401309869E-02  3.5209256971E-01
  6.3050000000E+03  1.6530396830E+00  6.2190001491E+00  1.7675883293E-02  1.7439831745E-02  3.5230870670E-01
  6.3100000000E+03  1.6544796579E+00  6.2168859508E+00  1.7715363190E-02  1.7478407214E-02  3.5252474529E-01
  6.3150000000E+03  1.6559189743E+00  6.2147741450E+00  1.7754899502E-02  1.7517036227E-02  3.5274068575E-01
  6.3200000000E+03  1.6573584021E+00  6.2126647272E+00  1.7794492262E-02  1.7555718899E-02  3.5295652835E-01
  6.3250000000E+03  1.6587979413E+00  6.2105576926E+00  1.7834141505E-02  1.7594455257E-02  3.5317227338E-01
  6.3300000000E+03  1.6602375919E+00  6.2084530368E+00  1.7873847268E-02  1.7633245331E-02  3.5338792110E-01
  6.3350000000E+03  1.6616773537E+00  6.2063507551E+00  1.7913609584E-02  1.7672089148E-02  3.5360347179E-01
  6.3400000000E+03  1.6631172267E+00  6.2042508431E+00  1.7953428488E-02  1.7710986737E-02  3.5381892572E-01
  6.3450000000E+03  1.6645572108E+00  6.2021532962E+00  1.7993304017E-02  1.7749938127E-02  3.5403428316E-01
  6.3500000000E+03  1.6659973060E+00  6.2000581098E+00  1.8033236203E-02  1.7788943345E-02  3.5424954439E-01
