#[MATERIAL DEFINITION FOR MC-GPU: interaction mean free path and sampling data from PENELOPE 2018]
#[MATERIAL NAME]
# humeri_upper                                                  
#[NOMINAL DENSITY (g/cm^3)]
#   1.18500000
#[NUMBER OF DATA VALUES]
#  23002
#[MEAN FREE PATHS (cm) (ie, average distance between interactions)]
#[Energy (eV)     | Rayleigh        | Compton         | Photoelectric   | TOTAL (+pair prod) (cm) | Rayleigh: max cumul prob F^2]
  5.0000000000E+03  1.4546691411E+00  7.1435727911E+00  1.1304020698E-02  1.1199271029E-02  2.9796738542E-01
  5.0050000000E+03  1.4560897000E+00  7.1397736857E+00  1.1335532381E-02  1.1230275796E-02  2.9822023546E-01
  5.0100000000E+03  1.4575102257E+00  7.1359803911E+00  1.1367099790E-02  1.1261334328E-02  2.9847289408E-01
  5.0150000000E+03  1.4589306333E+00  7.1321928927E+00  1.1398722969E-02  1.1292446654E-02  2.9872536170E-01
  5.0200000000E+03  1.4603509569E+00  7.1284111759E+00  1.1430401957E-02  1.1323612813E-02  2.9897763877E-01
  5.0250000000E+03  1.4617712472E+00  7.1246352260E+00  1.1462136797E-02  1.1354832843E-02  2.9922972572E-01
  5.0300000000E+03  1.4631915043E+00  7.1208650286E+00  1.1493927530E-02  1.1386106779E-02  2.9948162298E-01
  5.0350000000E+03  1.4646117282E+00  7.1171005691E+00  1.1525774196E-02  1.1417434658E-02  2.9973333099E-01
  5.0400000000E+03  1.4660319188E+00  7.1133418332E+00  1.1557676839E-02  1.1448816514E-02  2.9998485017E-01
  5.0450000000E+03  1.4674520763E+00  7.1095888065E+00  1.1589635497E-02  1.1480252383E-02  3.0023618097E-01
  5.0500000000E+03  1.4688722007E+00  7.1058414747E+00  1.1621650214E-02  1.1511742301E-02  3.0048732381E-01
  5.0550000000E+03  1.4702922921E+00  7.1020998235E+00  1.1653721030E-02  1.1543286304E-02  3.0073827911E-01
  5.0600000000E+03  1.4717245436E+00  7.0983638387E+00  1.1685847987E-02  1.1574885179E-02  3.0098904732E-01
  5.0650000000E+03  1.4731794296E+00  7.0946335062E+00  1.1718031125E-02  1.1606539622E-02  3.0123962884E-01
  5.0700000000E+03  1.4746343161E+00  7.0909088117E+00  1.1750270486E-02  1.1638248273E-02  3.0149002411E-01
  5.0750000000E+03  1.4760892033E+00  7.0871897413E+00  1.1782566112E-02  1.1670011166E-02  3.0174023355E-01
  5.0800000000E+03  1.4775440911E+00  7.0834762809E+00  1.1814918043E-02  1.1701828338E-02  3.0199025759E-01
  5.0850000000E+03  1.4789989795E+00  7.0798263922E+00  1.1847326321E-02  1.1733699982E-02  3.0224009665E-01
  5.0900000000E+03  1.4804538684E+00  7.0761875904E+00  1.1879790987E-02  1.1765625993E-02  3.0248975114E-01
  5.0950000000E+03  1.4819087580E+00  7.0725542287E+00  1.1912312081E-02  1.1797606390E-02  3.0273922150E-01
  5.1000000000E+03  1.4833636482E+00  7.0689262938E+00  1.1944889646E-02  1.1829641209E-02  3.0298850813E-01
  5.1050000000E+03  1.4848185390E+00  7.0653037721E+00  1.1977523722E-02  1.1861730484E-02  3.0323761146E-01
  5.1100000000E+03  1.4862808420E+00  7.0616866504E+00  1.2010214351E-02  1.1893874726E-02  3.0348653190E-01
  5.1150000000E+03  1.4877432278E+00  7.0580749153E+00  1.2042961573E-02  1.1926073504E-02  3.0373526988E-01
  5.1200000000E+03  1.4892056215E+00  7.0544685536E+00  1.2075765430E-02  1.1958326849E-02  3.0398382579E-01
  5.1250000000E+03  1.4906680232E+00  7.0508675520E+00  1.2108625963E-02  1.1990634795E-02  3.0423220007E-01
  5.1300000000E+03  1.4921304329E+00  7.0472718973E+00  1.2141543213E-02  1.2022997377E-02  3.0448039311E-01
  5.1350000000E+03  1.4935928505E+00  7.0436815764E+00  1.2174517220E-02  1.2055414631E-02  3.0472840534E-01
  5.1400000000E+03  1.4950552760E+00  7.0400965762E+00  1.2207548027E-02  1.2087886593E-02  3.0497623714E-01
  5.1450000000E+03  1.4965177094E+00  7.0365168836E+00  1.2240635674E-02  1.2120413296E-02  3.0522388881E-01
  5.1500000000E+03  1.4979801507E+00  7.0329424857E+00  1.2273780202E-02  1.2152994777E-02  3.0547136077E-01
  5.1550000000E+03  1.4994445475E+00  7.0293733694E+00  1.2306981652E-02  1.2185631198E-02  3.0571865348E-01
  5.1600000000E+03  1.5009106007E+00  7.0258095220E+00  1.2340240065E-02  1.2218322577E-02  3.0596576735E-01
  5.1650000000E+03  1.5023766652E+00  7.0222849142E+00  1.2373555483E-02  1.2251068943E-02  3.0621270282E-01
  5.1700000000E+03  1.5038427412E+00  7.0187928275E+00  1.2406927945E-02  1.2283870313E-02  3.0645946032E-01
  5.1750000000E+03  1.5053088286E+00  7.0153058506E+00  1.2440357494E-02  1.2316726640E-02  3.0670604029E-01
  5.1800000000E+03  1.5067749273E+00  7.0118239709E+00  1.2473844170E-02  1.2349637957E-02  3.0695244315E-01
  5.1850000000E+03  1.5082410374E+00  7.0083471761E+00  1.2507388014E-02  1.2382604300E-02  3.0719866934E-01
  5.1900000000E+03  1.5097071589E+00  7.0048754539E+00  1.2540989067E-02  1.2415625704E-02  3.0744471927E-01
  5.1950000000E+03  1.5111732917E+00  7.0014087921E+00  1.2574647369E-02  1.2448702204E-02  3.0769059338E-01
  5.2000000000E+03  1.5126394391E+00  6.9979471783E+00  1.2608362963E-02  1.2481833835E-02  3.0793629209E-01
  5.2050000000E+03  1.5141059980E+00  6.9944906004E+00  1.2642135888E-02  1.2515020658E-02  3.0818181582E-01
  5.2100000000E+03  1.5155725686E+00  6.9910390462E+00  1.2675966186E-02  1.2548262682E-02  3.0842716500E-01
  5.2150000000E+03  1.5170391509E+00  6.9875925037E+00  1.2709853897E-02  1.2581559941E-02  3.0867234005E-01
  5.2200000000E+03  1.5185057448E+00  6.9841509607E+00  1.2743799063E-02  1.2614912470E-02  3.0891734139E-01
  5.2250000000E+03  1.5199723505E+00  6.9807144053E+00  1.2777801724E-02  1.2648320304E-02  3.0916216944E-01
  5.2300000000E+03  1.5214389678E+00  6.9772828254E+00  1.2811861921E-02  1.2681783477E-02  3.0940682462E-01
  5.2350000000E+03  1.5229055968E+00  6.9738562090E+00  1.2845979695E-02  1.2715302024E-02  3.0965130734E-01
  5.2400000000E+03  1.5243722374E+00  6.9704345444E+00  1.2880155086E-02  1.2748875980E-02  3.0989561802E-01
  5.2450000000E+03  1.5258388896E+00  6.9670178195E+00  1.2914430487E-02  1.2782546870E-02  3.1013975708E-01
  5.2500000000E+03  1.5273067522E+00  6.9636611990E+00  1.2948942433E-02  1.2816448711E-02  3.1038372493E-01
  5.2550000000E+03  1.5287765351E+00  6.9603133532E+00  1.2983513162E-02  1.2850407219E-02  3.1062752199E-01
  5.2600000000E+03  1.5302463327E+00  6.9569702985E+00  1.3018142715E-02  1.2884422284E-02  3.1087114866E-01
  5.2650000000E+03  1.5317161448E+00  6.9536320235E+00  1.3052831137E-02  1.2918493942E-02  3.1111460536E-01
  5.2700000000E+03  1.5331859716E+00  6.9502985169E+00  1.3087578470E-02  1.2952622229E-02  3.1135789250E-01
  5.2750000000E+03  1.5346558129E+00  6.9469697672E+00  1.3122384756E-02  1.2986807182E-02  3.1160101049E-01
  5.2800000000E+03  1.5361256688E+00  6.9436457632E+00  1.3157250038E-02  1.3021048837E-02  3.1184395973E-01
  5.2850000000E+03  1.5375955392E+00  6.9403264937E+00  1.3192174360E-02  1.3055347231E-02  3.1208674063E-01
  5.2900000000E+03  1.5390654241E+00  6.9370119475E+00  1.3227157764E-02  1.3089702399E-02  3.1232935360E-01
  5.2950000000E+03  1.5405353235E+00  6.9337021133E+00  1.3262200293E-02  1.3124114379E-02  3.1257179904E-01
  5.3000000000E+03  1.5420216765E+00  6.9303969801E+00  1.3297301989E-02  1.3158584404E-02  3.1281407737E-01
  5.3050000000E+03  1.5435160151E+00  6.9270965367E+00  1.3332462896E-02  1.3193111903E-02  3.1305618897E-01
  5.3100000000E+03  1.5450103921E+00  6.9238007720E+00  1.3367683055E-02  1.3227696335E-02  3.1329813425E-01
  5.3150000000E+03  1.5465048073E+00  6.9205096751E+00  1.3402962511E-02  1.3262337738E-02  3.1353991362E-01
  5.3200000000E+03  1.5479992608E+00  6.9172232350E+00  1.3438301305E-02  1.3297036147E-02  3.1378152747E-01
  5.3250000000E+03  1.5494937526E+00  6.9139414406E+00  1.3473699480E-02  1.3331791598E-02  3.1402297621E-01
  5.3300000000E+03  1.5509882825E+00  6.9106668128E+00  1.3509157079E-02  1.3366604137E-02  3.1426426022E-01
  5.3350000000E+03  1.5524828505E+00  6.9074513032E+00  1.3544674145E-02  1.3401473996E-02  3.1450537991E-01
  5.3400000000E+03  1.5539774567E+00  6.9042402999E+00  1.3580250720E-02  1.3436401009E-02  3.1474633568E-01
  5.3450000000E+03  1.5554721009E+00  6.9010337923E+00  1.3615886847E-02  1.3471385211E-02  3.1498712791E-01
  5.3500000000E+03  1.5569737326E+00  6.8978317699E+00  1.3651582568E-02  1.3506427161E-02  3.1522775701E-01
  5.3550000000E+03  1.5584764299E+00  6.8946342223E+00  1.3687337927E-02  1.3541526454E-02  3.1546822337E-01
  5.3600000000E+03  1.5599791730E+00  6.8914411391E+00  1.3723152966E-02  1.3576683050E-02  3.1570852737E-01
  5.3650000000E+03  1.5614819619E+00  6.8882525098E+00  1.3759027727E-02  1.3611896983E-02  3.1594866941E-01
  5.3700000000E+03  1.5629847966E+00  6.8850683241E+00  1.3794962253E-02  1.3647168291E-02  3.1618864989E-01
  5.3750000000E+03  1.5644876770E+00  6.8818885717E+00  1.3830956587E-02  1.3682497010E-02  3.1642846918E-01
  5.3800000000E+03  1.5659906032E+00  6.8787132424E+00  1.3867010771E-02  1.3717883174E-02  3.1666812768E-01
  5.3850000000E+03  1.5674935749E+00  6.8755423257E+00  1.3903124848E-02  1.3753326822E-02  3.1690762578E-01
  5.3900000000E+03  1.5689965923E+00  6.8723758116E+00  1.3939298861E-02  1.3788827987E-02  3.1714696386E-01
  5.3950000000E+03  1.5704996553E+00  6.8692136899E+00  1.3975532851E-02  1.3824386707E-02  3.1738614232E-01
  5.4000000000E+03  1.5720035275E+00  6.8660559503E+00  1.4011826862E-02  1.3860003076E-02  3.1762516152E-01
  5.4050000000E+03  1.5735074631E+00  6.8629025828E+00  1.4048180936E-02  1.3895677073E-02  3.1786402186E-01
  5.4100000000E+03  1.5750114450E+00  6.8597535772E+00  1.4084595115E-02  1.3931408733E-02  3.1810272373E-01
  5.4150000000E+03  1.5765154731E+00  6.8566089236E+00  1.4121069443E-02  1.3967198090E-02  3.1834126749E-01
  5.4200000000E+03  1.5780195472E+00  6.8535172280E+00  1.4157603961E-02  1.4003045385E-02  3.1857965354E-01
  5.4250000000E+03  1.5795236675E+00  6.8504361542E+00  1.4194198712E-02  1.4038950478E-02  3.1881788226E-01
  5.4300000000E+03  1.5810278338E+00  6.8473593020E+00  1.4230853738E-02  1.4074913380E-02  3.1905595402E-01
  5.4350000000E+03  1.5825320462E+00  6.8442866618E+00  1.4267569083E-02  1.4110934125E-02  3.1929386920E-01
  5.4400000000E+03  1.5840363045E+00  6.8412182238E+00  1.4304344787E-02  1.4147012749E-02  3.1953162818E-01
  5.4450000000E+03  1.5855406087E+00  6.8381539786E+00  1.4341180895E-02  1.4183149288E-02  3.1976923134E-01
  5.4500000000E+03  1.5870779940E+00  6.8350939165E+00  1.4378077448E-02  1.4219346431E-02  3.2000667905E-01
  5.4550000000E+03  1.5886156577E+00  6.8320380280E+00  1.4415034489E-02  1.4255601595E-02  3.2024397169E-01
  5.4600000000E+03  1.5901534003E+00  6.8289863036E+00  1.4452052059E-02  1.4291914801E-02  3.2048110964E-01
  5.4650000000E+03  1.5916912219E+00  6.8259387338E+00  1.4489130203E-02  1.4328286085E-02  3.2071809326E-01
  5.4700000000E+03  1.5932291223E+00  6.8228953092E+00  1.4526268961E-02  1.4364715482E-02  3.2095492292E-01
  5.4750000000E+03  1.5947671014E+00  6.8198560203E+00  1.4563468376E-02  1.4401203028E-02  3.2119159901E-01
  5.4800000000E+03  1.5963051593E+00  6.8168208578E+00  1.4600728491E-02  1.4437748759E-02  3.2142812189E-01
  5.4850000000E+03  1.5978432958E+00  6.8137898122E+00  1.4638049348E-02  1.4474352709E-02  3.2166449193E-01
  5.4900000000E+03  1.5993815109E+00  6.8107628743E+00  1.4675430989E-02  1.4511014915E-02  3.2190070950E-01
  5.4950000000E+03  1.6009198045E+00  6.8077400348E+00  1.4712873457E-02  1.4547735413E-02  3.2213677497E-01
  5.5000000000E+03  1.6024589258E+00  6.8047212844E+00  1.4750376794E-02  1.4584514299E-02  3.2237268870E-01
  5.5050000000E+03  1.6039981931E+00  6.8017303228E+00  1.4788108058E-02  1.4621514938E-02  3.2260845107E-01
  5.5100000000E+03  1.6055375396E+00  6.7987726683E+00  1.4825900963E-02  1.4658574769E-02  3.2284406243E-01
  5.5150000000E+03  1.6070769651E+00  6.7958189808E+00  1.4863755550E-02  1.4695693695E-02  3.2307952316E-01
  5.5200000000E+03  1.6086164696E+00  6.7928692515E+00  1.4901671864E-02  1.4732871751E-02  3.2331483362E-01
  5.5250000000E+03  1.6101560531E+00  6.7899234714E+00  1.4939649947E-02  1.4770108975E-02  3.2354999416E-01
  5.5300000000E+03  1.6116957154E+00  6.7869816316E+00  1.4977689844E-02  1.4807405402E-02  3.2378500516E-01
  5.5350000000E+03  1.6132354564E+00  6.7840437235E+00  1.5015791598E-02  1.4844761069E-02  3.2401986698E-01
  5.5400000000E+03  1.6147752762E+00  6.7811097381E+00  1.5053955251E-02  1.4882176012E-02  3.2425457997E-01
  5.5450000000E+03  1.6163151747E+00  6.7781796666E+00  1.5092180848E-02  1.4919650268E-02  3.2448914449E-01
  5.5500000000E+03  1.6178660118E+00  6.7752535005E+00  1.5130468432E-02  1.4957184801E-02  3.2472356092E-01
  5.5550000000E+03  1.6194205991E+00  6.7723312308E+00  1.5168818046E-02  1.4994779040E-02  3.2495782959E-01
  5.5600000000E+03  1.6209752795E+00  6.7694128490E+00  1.5207229733E-02  1.5032432709E-02  3.2519195088E-01
  5.5650000000E+03  1.6225300529E+00  6.7664983464E+00  1.5245703536E-02  1.5070145845E-02  3.2542592514E-01
  5.5700000000E+03  1.6240849194E+00  6.7635877143E+00  1.5284239500E-02  1.5107918484E-02  3.2565975272E-01
  5.5750000000E+03  1.6256398787E+00  6.7606809442E+00  1.5322837667E-02  1.5145750663E-02  3.2589343398E-01
  5.5800000000E+03  1.6271949308E+00  6.7577780274E+00  1.5361498080E-02  1.5183642416E-02  3.2612696928E-01
  5.5850000000E+03  1.6287500757E+00  6.7548789555E+00  1.5400220783E-02  1.5221593782E-02  3.2636035897E-01
  5.5900000000E+03  1.6303053132E+00  6.7519837197E+00  1.5439005819E-02  1.5259604795E-02  3.2659360340E-01
  5.5950000000E+03  1.6318606433E+00  6.7491294672E+00  1.5477853232E-02  1.5297675683E-02  3.2682670292E-01
  5.6000000000E+03  1.6334239192E+00  6.7462927120E+00  1.5516763064E-02  1.5335807056E-02  3.2705965789E-01
  5.6050000000E+03  1.6349956724E+00  6.7434596793E+00  1.5555735358E-02  1.5373998933E-02  3.2729246866E-01
  5.6100000000E+03  1.6365675345E+00  6.7406303608E+00  1.5594770159E-02  1.5412250616E-02  3.2752513558E-01
  5.6150000000E+03  1.6381395054E+00  6.7378047483E+00  1.5633867508E-02  1.5450562140E-02  3.2775765899E-01
  5.6200000000E+03  1.6397115850E+00  6.7349828337E+00  1.5673027450E-02  1.5488933540E-02  3.2799003924E-01
  5.6250000000E+03  1.6412837733E+00  6.7321646089E+00  1.5712250027E-02  1.5527364854E-02  3.2822227669E-01
  5.6300000000E+03  1.6428560701E+00  6.7293500658E+00  1.5751535284E-02  1.5565856117E-02  3.2845437173E-01
  5.6350000000E+03  1.6444284754E+00  6.7265391963E+00  1.5790883261E-02  1.5604407366E-02  3.2868632496E-01
  5.6400000000E+03  1.6460009891E+00  6.7237319924E+00  1.5830294004E-02  1.5643018636E-02  3.2891813678E-01
  5.6450000000E+03  1.6475736111E+00  6.7209284460E+00  1.5869767555E-02  1.5681689963E-02  3.2914980755E-01
  5.6500000000E+03  1.6491463173E+00  6.7181285491E+00  1.5909303957E-02  1.5720421380E-02  3.2938133766E-01
  5.6550000000E+03  1.6507189652E+00  6.7153322938E+00  1.5948903254E-02  1.5759212912E-02  3.2961272747E-01
  5.6600000000E+03  1.6522917209E+00  6.7125396721E+00  1.5988565488E-02  1.5798064608E-02  3.2984397735E-01
  5.6650000000E+03  1.6538645843E+00  6.7097506761E+00  1.6028290702E-02  1.5836976505E-02  3.3007508768E-01
  5.6700000000E+03  1.6554375555E+00  6.7069652979E+00  1.6068078940E-02  1.5875948638E-02  3.3030605881E-01
  5.6750000000E+03  1.6570106341E+00  6.7041835295E+00  1.6107930245E-02  1.5914981044E-02  3.3053689112E-01
  5.6800000000E+03  1.6585838203E+00  6.7014053633E+00  1.6147844659E-02  1.5954073758E-02  3.3076758497E-01
  5.6850000000E+03  1.6601571138E+00  6.6986663227E+00  1.6187822227E-02  1.5993227018E-02  3.3099814073E-01
  5.6900000000E+03  1.6617305147E+00  6.6959441265E+00  1.6227862990E-02  1.6032440735E-02  3.3122855877E-01
  5.6950000000E+03  1.6633040227E+00  6.6932254261E+00  1.6267966992E-02  1.6071714871E-02  3.3145883944E-01
  5.7000000000E+03  1.6648776379E+00  6.6905102139E+00  1.6308134276E-02  1.6111049460E-02  3.3168898310E-01
  5.7050000000E+03  1.6664513437E+00  6.6877984825E+00  1.6348364885E-02  1.6150444538E-02  3.3191899013E-01
  5.7100000000E+03  1.6680251485E+00  6.6850902243E+00  1.6388658862E-02  1.6189900139E-02  3.3214886088E-01
  5.7150000000E+03  1.6695990600E+00  6.6823854319E+00  1.6429016250E-02  1.6229416301E-02  3.3237859571E-01
  5.7200000000E+03  1.6711730783E+00  6.6796840978E+00  1.6469437092E-02  1.6268993059E-02  3.3260819499E-01
  5.7250000000E+03  1.6727472033E+00  6.6769862145E+00  1.6509921430E-02  1.6308630449E-02  3.3283765906E-01
  5.7300000000E+03  1.6743214349E+00  6.6742917747E+00  1.6550469309E-02  1.6348328507E-02  3.3306698830E-01
  5.7350000000E+03  1.6758957730E+00  6.6716007709E+00  1.6591080770E-02  1.6388087267E-02  3.3329618305E-01
  5.7400000000E+03  1.6774702175E+00  6.6689131957E+00  1.6631755857E-02  1.6427906766E-02  3.3352524366E-01
  5.7450000000E+03  1.6790447684E+00  6.6662290419E+00  1.6672494612E-02  1.6467787039E-02  3.3375417051E-01
  5.7500000000E+03  1.6806194254E+00  6.6635483021E+00  1.6713297080E-02  1.6507728121E-02  3.3398296394E-01
  5.7550000000E+03  1.6821947573E+00  6.6608709689E+00  1.6754163301E-02  1.6547730103E-02  3.3421162430E-01
  5.7600000000E+03  1.6837743677E+00  6.6581970352E+00  1.6795093320E-02  1.6587793370E-02  3.3444015195E-01
  5.7650000000E+03  1.6853540889E+00  6.6555264936E+00  1.6836087180E-02  1.6627917556E-02  3.3466854724E-01
  5.7700000000E+03  1.6869339208E+00  6.6528593369E+00  1.6877144922E-02  1.6668102697E-02  3.3489681053E-01
  5.7750000000E+03  1.6885138632E+00  6.6502159464E+00  1.6918266591E-02  1.6708348956E-02  3.3512494215E-01
  5.7800000000E+03  1.6900939162E+00  6.6476023791E+00  1.6959452228E-02  1.6748656409E-02  3.3535294247E-01
  5.7850000000E+03  1.6916740795E+00  6.6449920976E+00  1.7000701877E-02  1.6789024925E-02  3.3558081183E-01
  5.7900000000E+03  1.6932543531E+00  6.6423850949E+00  1.7042015581E-02  1.6829454540E-02  3.3580855058E-01
  5.7950000000E+03  1.6948347370E+00  6.6397813639E+00  1.7083393382E-02  1.6869945289E-02  3.3603615906E-01
  5.8000000000E+03  1.6964152310E+00  6.6371808978E+00  1.7124835324E-02  1.6910497206E-02  3.3626363763E-01
  5.8050000000E+03  1.6979958351E+00  6.6345836897E+00  1.7166341448E-02  1.6951110327E-02  3.3649098663E-01
  5.8100000000E+03  1.6995765791E+00  6.6319897326E+00  1.7207911798E-02  1.6991784691E-02  3.3671820641E-01
  5.8150000000E+03  1.7011574665E+00  6.6293990198E+00  1.7249546417E-02  1.7032520333E-02  3.3694529730E-01
  5.8200000000E+03  1.7027384637E+00  6.6268115444E+00  1.7291245347E-02  1.7073317285E-02  3.3717225966E-01
  5.8250000000E+03  1.7043195707E+00  6.6242272995E+00  1.7333008632E-02  1.7114175582E-02  3.3739909382E-01
  5.8300000000E+03  1.7059007874E+00  6.6216462784E+00  1.7374836313E-02  1.7155095259E-02  3.3762580013E-01
  5.8350000000E+03  1.7074821137E+00  6.6190684743E+00  1.7416728434E-02  1.7196076351E-02  3.3785237894E-01
  5.8400000000E+03  1.7090635495E+00  6.6164938804E+00  1.7458685038E-02  1.7237118893E-02  3.3807883057E-01
  5.8450000000E+03  1.7106450948E+00  6.6139224900E+00  1.7500706166E-02  1.7278222920E-02  3.3830515537E-01
  5.8500000000E+03  1.7122267493E+00  6.6113542963E+00  1.7542791863E-02  1.7319388468E-02  3.3853135369E-01
  5.8550000000E+03  1.7138085132E+00  6.6087892927E+00  1.7584942170E-02  1.7360615571E-02  3.3875742585E-01
  5.8600000000E+03  1.7153903861E+00  6.6062274725E+00  1.7627157130E-02  1.7401904265E-02  3.3898337220E-01
  5.8650000000E+03  1.7169717910E+00  6.6036688289E+00  1.7669436786E-02  1.7443254524E-02  3.3920919307E-01
  5.8700000000E+03  1.7185530840E+00  6.6011514879E+00  1.7711781181E-02  1.7484666688E-02  3.3943488881E-01
  5.8750000000E+03  1.7201344852E+00  6.5986440876E+00  1.7754190357E-02  1.7526140597E-02  3.3966045974E-01
  5.8800000000E+03  1.7217159945E+00  6.5961397716E+00  1.7796664357E-02  1.7567676238E-02  3.3988590620E-01
  5.8850000000E+03  1.7232976117E+00  6.5936385334E+00  1.7839203224E-02  1.7609273647E-02  3.4011122853E-01
  5.8900000000E+03  1.7248793367E+00  6.5911403667E+00  1.7881807000E-02  1.7650932858E-02  3.4033642705E-01
  5.8950000000E+03  1.7264611696E+00  6.5886452650E+00  1.7924475728E-02  1.7692653905E-02  3.4056150211E-01
  5.9000000000E+03  1.7280431101E+00  6.5861532221E+00  1.7967209450E-02  1.7734436825E-02  3.4078645404E-01
  5.9050000000E+03  1.7296251582E+00  6.5836642315E+00  1.8010008210E-02  1.7776281651E-02  3.4101128315E-01
  5.9100000000E+03  1.7312073139E+00  6.5811782871E+00  1.8052872049E-02  1.7818188418E-02  3.4123598980E-01
  5.9150000000E+03  1.7327895771E+00  6.5786953823E+00  1.8095801010E-02  1.7860157162E-02  3.4146057430E-01
  5.9200000000E+03  1.7343734139E+00  6.5762155111E+00  1.8138795137E-02  1.7902188072E-02  3.4168503699E-01
  5.9250000000E+03  1.7359575670E+00  6.5737386671E+00  1.8181854470E-02  1.7944281051E-02  3.4190937820E-01
  5.9300000000E+03  1.7375418290E+00  6.5712648440E+00  1.8224979054E-02  1.7986436112E-02  3.4213359825E-01
  5.9350000000E+03  1.7391261998E+00  6.5687940357E+00  1.8268168930E-02  1.8028653288E-02  3.4235769747E-01
  5.9400000000E+03  1.7407106792E+00  6.5663262359E+00  1.8311424142E-02  1.8070932615E-02  3.4258167618E-01
  5.9450000000E+03  1.7422952672E+00  6.5638614385E+00  1.8354744731E-02  1.8113274127E-02  3.4280553473E-01
  5.9500000000E+03  1.7438799638E+00  6.5613996373E+00  1.8398130740E-02  1.8155677859E-02  3.4302927342E-01
  5.9550000000E+03  1.7454647687E+00  6.5589408260E+00  1.8441582212E-02  1.8198143845E-02  3.4325289259E-01
  5.9600000000E+03  1.7470496820E+00  6.5564849987E+00  1.8485099188E-02  1.8240672120E-02  3.4347639255E-01
  5.9650000000E+03  1.7486347035E+00  6.5540736295E+00  1.8528681713E-02  1.8283263041E-02  3.4369977364E-01
  5.9700000000E+03  1.7502198332E+00  6.5516668186E+00  1.8572329828E-02  1.8325916336E-02  3.4392303618E-01
  5.9750000000E+03  1.7518288939E+00  6.5492629054E+00  1.8616043575E-02  1.8368634646E-02  3.4414618048E-01
  5.9800000000E+03  1.7534398801E+00  6.5468618838E+00  1.8659822997E-02  1.8411415600E-02  3.4436920687E-01
  5.9850000000E+03  1.7550509996E+00  6.5444637481E+00  1.8703668137E-02  1.8454259038E-02  3.4459211568E-01
  5.9900000000E+03  1.7566622521E+00  6.5420684924E+00  1.8747579037E-02  1.8497164993E-02  3.4481490721E-01
  5.9950000000E+03  1.7582736376E+00  6.5396761108E+00  1.8791555739E-02  1.8540133500E-02  3.4503758180E-01
  6.0000000000E+03  1.7598851560E+00  6.5372865975E+00  1.8835598286E-02  1.8583164593E-02  3.4526013975E-01
  6.0050000000E+03  1.7614968072E+00  6.5348999465E+00  1.8880127137E-02  1.8626667513E-02  3.4548258140E-01
  6.0100000000E+03  1.7631085911E+00  6.5325161523E+00  1.8924723570E-02  1.8670234658E-02  3.4570490705E-01
  6.0150000000E+03  1.7647205076E+00  6.5301352088E+00  1.8969387628E-02  1.8713866063E-02  3.4592711702E-01
  6.0200000000E+03  1.7663325566E+00  6.5277571104E+00  1.9014119357E-02  1.8757561767E-02  3.4614921164E-01
  6.0250000000E+03  1.7679447380E+00  6.5253818514E+00  1.9058918801E-02  1.8801321805E-02  3.4637119121E-01
  6.0300000000E+03  1.7695602813E+00  6.5230094258E+00  1.9103786007E-02  1.8845146581E-02  3.4659305606E-01
  6.0350000000E+03  1.7711764008E+00  6.5206398282E+00  1.9148721018E-02  1.8889035817E-02  3.4681480649E-01
  6.0400000000E+03  1.7727926559E+00  6.5182730526E+00  1.9193723881E-02  1.8932989500E-02  3.4703644283E-01
  6.0450000000E+03  1.7744090468E+00  6.5159090935E+00  1.9238794639E-02  1.8977007667E-02  3.4725796538E-01
  6.0500000000E+03  1.7760255731E+00  6.5135479452E+00  1.9283933338E-02  1.9021090355E-02  3.4747937445E-01
  6.0550000000E+03  1.7776422350E+00  6.5111896019E+00  1.9329140023E-02  1.9065237598E-02  3.4770067038E-01
  6.0600000000E+03  1.7792590321E+00  6.5088659308E+00  1.9374414740E-02  1.9109449710E-02  3.4792185345E-01
  6.0650000000E+03  1.7808759645E+00  6.5065544384E+00  1.9419757532E-02  1.9153726536E-02  3.4814292399E-01
  6.0700000000E+03  1.7824930321E+00  6.5042456707E+00  1.9465168445E-02  1.9198068031E-02  3.4836388230E-01
  6.0750000000E+03  1.7841102347E+00  6.5019396223E+00  1.9510647524E-02  1.9242474233E-02  3.4858472870E-01
  6.0800000000E+03  1.7857275722E+00  6.4996362876E+00  1.9556194814E-02  1.9286945176E-02  3.4880546349E-01
  6.0850000000E+03  1.7873636612E+00  6.4973356613E+00  1.9601810359E-02  1.9331483076E-02  3.4902608699E-01
  6.0900000000E+03  1.7890067926E+00  6.4950377379E+00  1.9647494206E-02  1.9376086613E-02  3.4924659950E-01
  6.0950000000E+03  1.7906500842E+00  6.4927425122E+00  1.9693246398E-02  1.9420755021E-02  3.4946700134E-01
  6.1000000000E+03  1.7922935358E+00  6.4904499786E+00  1.9739066981E-02  1.9465488337E-02  3.4968729280E-01
  6.1050000000E+03  1.7939371474E+00  6.4881601319E+00  1.9784955999E-02  1.9510286597E-02  3.4990747419E-01
  6.1100000000E+03  1.7955809189E+00  6.4858729666E+00  1.9830913498E-02  1.9555149837E-02  3.5012754583E-01
  6.1150000000E+03  1.7972248501E+00  6.4835884775E+00  1.9876939522E-02  1.9600078093E-02  3.5034750801E-01
  6.1200000000E+03  1.7988689409E+00  6.4813066593E+00  1.9923034116E-02  1.9645071402E-02  3.5056736105E-01
  6.1250000000E+03  1.8005131912E+00  6.4790275066E+00  1.9969197326E-02  1.9690129800E-02  3.5078710524E-01
  6.1300000000E+03  1.8021576009E+00  6.4767510142E+00  2.0015429195E-02  1.9735253323E-02  3.5100674090E-01
  6.1350000000E+03  1.8038021699E+00  6.4744771767E+00  2.0061729769E-02  1.9780442008E-02  3.5122626832E-01
  6.1400000000E+03  1.8054467798E+00  6.4722059890E+00  2.0108099093E-02  1.9825695876E-02  3.5144568781E-01
  6.1450000000E+03  1.8070914184E+00  6.4699374458E+00  2.0154537212E-02  1.9871014963E-02  3.5166499967E-01
  6.1500000000E+03  1.8087362157E+00  6.4676715418E+00  2.0201044170E-02  1.9916399319E-02  3.5188420420E-01
  6.1550000000E+03  1.8103811716E+00  6.4654190367E+00  2.0247620012E-02  1.9961849084E-02  3.5210330170E-01
  6.1600000000E+03  1.8120262859E+00  6.4631978845E+00  2.0294264783E-02  2.0007364467E-02  3.5232229248E-01
  6.1650000000E+03  1.8136715586E+00  6.4609792965E+00  2.0340978528E-02  2.0052945231E-02  3.5254117683E-01
  6.1700000000E+03  1.8153169894E+00  6.4587632678E+00  2.0387761291E-02  2.0098591413E-02  3.5275995506E-01
  6.1750000000E+03  1.8169625784E+00  6.4565497934E+00  2.0434613119E-02  2.0144303049E-02  3.5297862746E-01
  6.1800000000E+03  1.8186083254E+00  6.4543388681E+00  2.0481534054E-02  2.0190080175E-02  3.5319719434E-01
  6.1850000000E+03  1.8202542303E+00  6.4521304871E+00  2.0528524142E-02  2.0235922826E-02  3.5341565599E-01
  6.1900000000E+03  1.8219002929E+00  6.4499246453E+00  2.0575583428E-02  2.0281831039E-02  3.5363401270E-01
  6.1950000000E+03  1.8235464658E+00  6.4477213378E+00  2.0622711957E-02  2.0327804844E-02  3.5385226479E-01
  6.2000000000E+03  1.8251924417E+00  6.4455205596E+00  2.0669909772E-02  2.0373844238E-02  3.5407041253E-01
  6.2050000000E+03  1.8268385746E+00  6.4433223058E+00  2.0717176920E-02  2.0419949301E-02  3.5428845624E-01
  6.2100000000E+03  1.8284848644E+00  6.4411265715E+00  2.0764513445E-02  2.0466120069E-02  3.5450639620E-01
  6.2150000000E+03  1.8301313111E+00  6.4389333517E+00  2.0811919391E-02  2.0512356578E-02  3.5472423271E-01
  6.2200000000E+03  1.8317779144E+00  6.4367426415E+00  2.0859394803E-02  2.0558658864E-02  3.5494196607E-01
  6.2250000000E+03  1.8334246744E+00  6.4345544361E+00  2.0906939726E-02  2.0605026962E-02  3.5515959657E-01
  6.2300000000E+03  1.8350715908E+00  6.4323687306E+00  2.0954554204E-02  2.0651460908E-02  3.5537712450E-01
  6.2350000000E+03  1.8367186636E+00  6.4301855201E+00  2.1002238283E-02  2.0697960739E-02  3.5559455016E-01
  6.2400000000E+03  1.8383658926E+00  6.4280047998E+00  2.1049992007E-02  2.0744526489E-02  3.5581187384E-01
  6.2450000000E+03  1.8400132778E+00  6.4258265648E+00  2.1097815420E-02  2.0791158195E-02  3.5602909583E-01
  6.2500000000E+03  1.8416608190E+00  6.4236508104E+00  2.1145708568E-02  2.0837855892E-02  3.5624621643E-01
  6.2550000000E+03  1.8433080493E+00  6.4214948851E+00  2.1193671494E-02  2.0884619740E-02  3.5646323592E-01
  6.2600000000E+03  1.8449551878E+00  6.4193618189E+00  2.1241704244E-02  2.0931449837E-02  3.5668015460E-01
  6.2650000000E+03  1.8466024813E+00  6.4172311634E+00  2.1289806862E-02  2.0978346034E-02  3.5689697276E-01
  6.2700000000E+03  1.8482499297E+00  6.4151029140E+00  2.1337979393E-02  2.1025308369E-02  3.5711369069E-01
  6.2750000000E+03  1.8498975329E+00  6.4129770661E+00  2.1386221882E-02  2.1072336876E-02  3.5733030867E-01
  6.2800000000E+03  1.8515452908E+00  6.4108536151E+00  2.1434534372E-02  2.1119431590E-02  3.5754682700E-01
  6.2850000000E+03  1.8531932032E+00  6.4087325563E+00  2.1482916909E-02  2.1166592548E-02  3.5776324596E-01
  6.2900000000E+03  1.8548412701E+00  6.4066138852E+00  2.1531369538E-02  2.1213819785E-02  3.5797956585E-01
  6.2950000000E+03  1.8564894913E+00  6.4044975971E+00  2.1579892302E-02  2.1261113337E-02  3.5819578694E-01
  6.3000000000E+03  1.8581378668E+00  6.4023836875E+00  2.1628485247E-02  2.1308473238E-02  3.5841190954E-01
  6.3050000000E+03  1.8597863964E+00  6.4002721519E+00  2.1677148416E-02  2.1355899525E-02  3.5862793392E-01
  6.3100000000E+03  1.8614350031E+00  6.3981629856E+00  2.1725881855E-02  2.1403392222E-02  3.5884386037E-01
  6.3150000000E+03  1.8630829453E+00  6.3960561842E+00  2.1774685608E-02  2.1450951267E-02  3.5905968918E-01
  6.3200000000E+03  1.8647310404E+00  6.3939517432E+00  2.1823559720E-02  2.1498576803E-02  3.5927542064E-01
  6.3250000000E+03  1.8663792883E+00  6.3918496580E+00  2.1872504235E-02  2.1546268864E-02  3.5949105502E-01
  6.3300000000E+03  1.8680276890E+00  6.3897499241E+00  2.1921519197E-02  2.1594027488E-02  3.5970659261E-01
  6.3350000000E+03  1.8696762423E+00  6.3876525371E+00  2.1970604652E-02  2.1641852708E-02  3.5992203370E-01
  6.3400000000E+03  1.8713249480E+00  6.3855574925E+00  2.2019760643E-02  2.1689744560E-02  3.6013737858E-01
  6.3450000000E+03  1.8729738062E+00  6.3834647858E+00  2.2068987215E-02  2.1737703079E-02  3.6035262751E-01
  6.3500000000E+03  1.8746228167E+00  6.3813744125E+00  2.2118284413E-02  2.1785728301E-02  3.6056778080E-01
