#[MATERIAL DEFINITION FOR MC-GPU: interaction mean free path and sampling data from PENELOPE 2018]
#[MATERIAL NAME]
# cartilage                                                     
#[NOMINAL DENSITY (g/cm^3)]
#   1.10000000
#[NUMBER OF DATA VALUES]
#  23002
#[MEAN FREE PATHS (cm) (ie, average distance between interactions)]
#[Energy (eV)     | Rayleigh        | Compton         | Photoelectric   | TOTAL (+pair prod) (cm) | Rayleigh: max cumul prob F^2]
  5.0000000000E+03  1.5540926903E+00  7.9521074432E+00  1.9039925155E-02  1.8765095363E-02  3.3999265009E-01
  5.0050000000E+03  1.5558915722E+00  7.9470083207E+00  1.9096676111E-02  1.8820452372E-02  3.4025848069E-01
  5.0100000000E+03  1.5576907370E+00  7.9419175544E+00  1.9153539031E-02  1.8875915583E-02  3.4052402680E-01
  5.0150000000E+03  1.5594906543E+00  7.9368351225E+00  1.9210514024E-02  1.8931485154E-02  3.4078928900E-01
  5.0200000000E+03  1.5612911354E+00  7.9317610029E+00  1.9267601197E-02  1.8987161146E-02  3.4105426786E-01
  5.0250000000E+03  1.5630918997E+00  7.9266951738E+00  1.9324800660E-02  1.9042943609E-02  3.4131896394E-01
  5.0300000000E+03  1.5648929469E+00  7.9216376134E+00  1.9382112518E-02  1.9098832632E-02  3.4158337781E-01
  5.0350000000E+03  1.5666942769E+00  7.9165883001E+00  1.9439536881E-02  1.9154828303E-02  3.4184751002E-01
  5.0400000000E+03  1.5684958894E+00  7.9115472121E+00  1.9497073857E-02  1.9210930712E-02  3.4211136114E-01
  5.0450000000E+03  1.5702977841E+00  7.9065143280E+00  1.9554723552E-02  1.9267139948E-02  3.4237493173E-01
  5.0500000000E+03  1.5720999608E+00  7.9014896264E+00  1.9612486077E-02  1.9323456100E-02  3.4263822233E-01
  5.0550000000E+03  1.5739024193E+00  7.8964730857E+00  1.9670361537E-02  1.9379879256E-02  3.4290123351E-01
  5.0600000000E+03  1.5757055488E+00  7.8914646848E+00  1.9728350042E-02  1.9436409566E-02  3.4316396582E-01
  5.0650000000E+03  1.5775096840E+00  7.8864644023E+00  1.9786451698E-02  1.9493047169E-02  3.4342641981E-01
  5.0700000000E+03  1.5793141018E+00  7.8814722172E+00  1.9844666615E-02  1.9549792045E-02  3.4368859603E-01
  5.0750000000E+03  1.5811188018E+00  7.8764881083E+00  1.9902994900E-02  1.9606644283E-02  3.4395049502E-01
  5.0800000000E+03  1.5829237839E+00  7.8715120547E+00  1.9961436660E-02  1.9663603971E-02  3.4421211734E-01
  5.0850000000E+03  1.5847290478E+00  7.8666282320E+00  2.0019992005E-02  1.9720671727E-02  3.4447346353E-01
  5.0900000000E+03  1.5865345933E+00  7.8617603983E+00  2.0078661041E-02  1.9777847169E-02  3.4473453413E-01
  5.0950000000E+03  1.5883404201E+00  7.8569003518E+00  2.0137443876E-02  1.9835130334E-02  3.4499532968E-01
  5.1000000000E+03  1.5901465281E+00  7.8520480724E+00  2.0196340619E-02  1.9892521311E-02  3.4525585073E-01
  5.1050000000E+03  1.5919529169E+00  7.8472035400E+00  2.0255351378E-02  1.9950020189E-02  3.4551609781E-01
  5.1100000000E+03  1.5937600640E+00  7.8423667349E+00  2.0314476259E-02  2.0007627130E-02  3.4577607146E-01
  5.1150000000E+03  1.5955674970E+00  7.8375376370E+00  2.0373715372E-02  2.0065342150E-02  3.4603577222E-01
  5.1200000000E+03  1.5973752108E+00  7.8327162265E+00  2.0433068824E-02  2.0123165336E-02  3.4629520061E-01
  5.1250000000E+03  1.5991832051E+00  7.8279024839E+00  2.0492536722E-02  2.0181096777E-02  3.4655435717E-01
  5.1300000000E+03  1.6009914799E+00  7.8230963893E+00  2.0552119175E-02  2.0239136560E-02  3.4681324243E-01
  5.1350000000E+03  1.6028000347E+00  7.8182979232E+00  2.0611816291E-02  2.0297284775E-02  3.4707185693E-01
  5.1400000000E+03  1.6046088694E+00  7.8135070661E+00  2.0671628177E-02  2.0355541508E-02  3.4733020118E-01
  5.1450000000E+03  1.6064179838E+00  7.8087237986E+00  2.0731554941E-02  2.0413906849E-02  3.4758827571E-01
  5.1500000000E+03  1.6082273777E+00  7.8039481012E+00  2.0791596691E-02  2.0472380886E-02  3.4784608105E-01
  5.1550000000E+03  1.6100393897E+00  7.7991799547E+00  2.0851753535E-02  2.0530964086E-02  3.4810361772E-01
  5.1600000000E+03  1.6118536614E+00  7.7944193397E+00  2.0912025581E-02  2.0589656483E-02  3.4836088629E-01
  5.1650000000E+03  1.6136682174E+00  7.7897157403E+00  2.0972412937E-02  2.0648458193E-02  3.4861788755E-01
  5.1700000000E+03  1.6154830574E+00  7.7850593549E+00  2.1032915709E-02  2.0707369242E-02  3.4887462213E-01
  5.1750000000E+03  1.6172981812E+00  7.7804102500E+00  2.1093534007E-02  2.0766389439E-02  3.4913109064E-01
  5.1800000000E+03  1.6191135887E+00  7.7757684072E+00  2.1154267938E-02  2.0825518873E-02  3.4938729369E-01
  5.1850000000E+03  1.6209292794E+00  7.7711338082E+00  2.1215117609E-02  2.0884757630E-02  3.4964323185E-01
  5.1900000000E+03  1.6227452534E+00  7.7665064345E+00  2.1276083129E-02  2.0944105798E-02  3.4989890575E-01
  5.1950000000E+03  1.6245615102E+00  7.7618862682E+00  2.1337164605E-02  2.1003563466E-02  3.5015431595E-01
  5.2000000000E+03  1.6263780535E+00  7.7572732909E+00  2.1398362145E-02  2.1063130721E-02  3.5040946307E-01
  5.2050000000E+03  1.6281953639E+00  7.7526674846E+00  2.1459675858E-02  2.1122807733E-02  3.5066434769E-01
  5.2100000000E+03  1.6300129570E+00  7.7480688314E+00  2.1521105849E-02  2.1182594507E-02  3.5091897040E-01
  5.2150000000E+03  1.6318308328E+00  7.7434773132E+00  2.1582652229E-02  2.1242491131E-02  3.5117333178E-01
  5.2200000000E+03  1.6336489910E+00  7.7388929121E+00  2.1644315103E-02  2.1302497692E-02  3.5142743241E-01
  5.2250000000E+03  1.6354674313E+00  7.7343156103E+00  2.1706094580E-02  2.1362614279E-02  3.5168127289E-01
  5.2300000000E+03  1.6372861535E+00  7.7297453901E+00  2.1767990768E-02  2.1422840978E-02  3.5193485379E-01
  5.2350000000E+03  1.6391051574E+00  7.7251822337E+00  2.1830003774E-02  2.1483177877E-02  3.5218817568E-01
  5.2400000000E+03  1.6409244429E+00  7.7206261235E+00  2.1892133707E-02  2.1543625062E-02  3.5244123915E-01
  5.2450000000E+03  1.6427440095E+00  7.7160770419E+00  2.1954380673E-02  2.1604182621E-02  3.5269404476E-01
  5.2500000000E+03  1.6445643659E+00  7.7116155929E+00  2.2016744781E-02  2.1664851366E-02  3.5294659310E-01
  5.2550000000E+03  1.6463858135E+00  7.7071667591E+00  2.2079226138E-02  2.1725630854E-02  3.5319888473E-01
  5.2600000000E+03  1.6482075434E+00  7.7027247191E+00  2.2141824852E-02  2.1786520987E-02  3.5345092022E-01
  5.2650000000E+03  1.6500295552E+00  7.6982894561E+00  2.2204541031E-02  2.1847521852E-02  3.5370270013E-01
  5.2700000000E+03  1.6518518489E+00  7.6938609533E+00  2.2267374782E-02  2.1908633535E-02  3.5395422503E-01
  5.2750000000E+03  1.6536744241E+00  7.6894391941E+00  2.2330326214E-02  2.1969856125E-02  3.5420549549E-01
  5.2800000000E+03  1.6554972806E+00  7.6850241618E+00  2.2393395433E-02  2.2031189707E-02  3.5445651206E-01
  5.2850000000E+03  1.6573204183E+00  7.6806158397E+00  2.2456582548E-02  2.2092634369E-02  3.5470727531E-01
  5.2900000000E+03  1.6591438369E+00  7.6762142115E+00  2.2519887666E-02  2.2154190197E-02  3.5495778579E-01
  5.2950000000E+03  1.6609675362E+00  7.6718192605E+00  2.2583310895E-02  2.2215857277E-02  3.5520804405E-01
  5.3000000000E+03  1.6627914281E+00  7.6674309704E+00  2.2646852343E-02  2.2277635682E-02  3.5545805065E-01
  5.3050000000E+03  1.6646155577E+00  7.6630493248E+00  2.2710512117E-02  2.2339525505E-02  3.5570780614E-01
  5.3100000000E+03  1.6664399671E+00  7.6586743074E+00  2.2774290324E-02  2.2401526841E-02  3.5595731107E-01
  5.3150000000E+03  1.6682646562E+00  7.6543059019E+00  2.2838187074E-02  2.2463639776E-02  3.5620656600E-01
  5.3200000000E+03  1.6700896246E+00  7.6499440922E+00  2.2902202472E-02  2.2525864397E-02  3.5645557145E-01
  5.3250000000E+03  1.6719148723E+00  7.6455888620E+00  2.2966336627E-02  2.2588200789E-02  3.5670432799E-01
  5.3300000000E+03  1.6737403989E+00  7.6412439070E+00  2.3030589647E-02  2.2650649073E-02  3.5695283615E-01
  5.3350000000E+03  1.6755662043E+00  7.6369853827E+00  2.3094961639E-02  2.2713210008E-02  3.5720109647E-01
  5.3400000000E+03  1.6773922882E+00  7.6327332175E+00  2.3159452711E-02  2.2775882982E-02  3.5744910950E-01
  5.3450000000E+03  1.6792186504E+00  7.6284873962E+00  2.3224062970E-02  2.2838668081E-02  3.5769687576E-01
  5.3500000000E+03  1.6810448015E+00  7.6242479032E+00  2.3288792524E-02  2.2901565302E-02  3.5794439580E-01
  5.3550000000E+03  1.6828711581E+00  7.6200147233E+00  2.3353641480E-02  2.2964574806E-02  3.5819167015E-01
  5.3600000000E+03  1.6846977916E+00  7.6157878412E+00  2.3418609947E-02  2.3027696693E-02  3.5843869934E-01
  5.3650000000E+03  1.6865247019E+00  7.6115672417E+00  2.3483698032E-02  2.3090931049E-02  3.5868548391E-01
  5.3700000000E+03  1.6883518887E+00  7.6073529095E+00  2.3548905842E-02  2.3154277960E-02  3.5893202437E-01
  5.3750000000E+03  1.6901793518E+00  7.6031448296E+00  2.3614233485E-02  2.3217737511E-02  3.5917832126E-01
  5.3800000000E+03  1.6920070910E+00  7.5989429868E+00  2.3679681069E-02  2.3281309790E-02  3.5942437510E-01
  5.3850000000E+03  1.6938351061E+00  7.5947473662E+00  2.3745248701E-02  2.3344994881E-02  3.5967018642E-01
  5.3900000000E+03  1.6956633969E+00  7.5905579527E+00  2.3810936489E-02  2.3408792871E-02  3.5991575573E-01
  5.3950000000E+03  1.6974919631E+00  7.5863747315E+00  2.3876744540E-02  2.3472703845E-02  3.6016108357E-01
  5.4000000000E+03  1.6993232637E+00  7.5821976877E+00  2.3942672962E-02  2.3536728360E-02  3.6040617044E-01
  5.4050000000E+03  1.7011548977E+00  7.5780268063E+00  2.4008721863E-02  2.3600866044E-02  3.6065101687E-01
  5.4100000000E+03  1.7029868095E+00  7.5738620727E+00  2.4074891350E-02  2.3665116974E-02  3.6089562336E-01
  5.4150000000E+03  1.7048189991E+00  7.5697034721E+00  2.4141181530E-02  2.3729481234E-02  3.6113999044E-01
  5.4200000000E+03  1.7066514661E+00  7.5656225010E+00  2.4207592511E-02  2.3793959616E-02  3.6138411861E-01
  5.4250000000E+03  1.7084842104E+00  7.5615568720E+00  2.4274124401E-02  2.3858551601E-02  3.6162800838E-01
  5.4300000000E+03  1.7103172318E+00  7.5574971701E+00  2.4340777307E-02  2.3923257181E-02  3.6187166027E-01
  5.4350000000E+03  1.7121505299E+00  7.5534433814E+00  2.4407551338E-02  2.3988076442E-02  3.6211507478E-01
  5.4400000000E+03  1.7139841047E+00  7.5493954916E+00  2.4474446599E-02  2.4053009468E-02  3.6235825242E-01
  5.4450000000E+03  1.7158179559E+00  7.5453534870E+00  2.4541463199E-02  2.4118056346E-02  3.6260119368E-01
  5.4500000000E+03  1.7177186680E+00  7.5413173534E+00  2.4608601245E-02  2.4183230358E-02  3.6284389908E-01
  5.4550000000E+03  1.7196201420E+00  7.5372870771E+00  2.4675860846E-02  2.4248518574E-02  3.6308636911E-01
  5.4600000000E+03  1.7215219759E+00  7.5332626441E+00  2.4743242107E-02  2.4313920999E-02  3.6332860427E-01
  5.4650000000E+03  1.7234241694E+00  7.5292440406E+00  2.4810745137E-02  2.4379437719E-02  3.6357060506E-01
  5.4700000000E+03  1.7253267224E+00  7.5252312529E+00  2.4878370044E-02  2.4445068819E-02  3.6381237198E-01
  5.4750000000E+03  1.7272296344E+00  7.5212242672E+00  2.4946116935E-02  2.4510814384E-02  3.6405390552E-01
  5.4800000000E+03  1.7291329054E+00  7.5172230700E+00  2.5013985917E-02  2.4576674501E-02  3.6429520617E-01
  5.4850000000E+03  1.7310365350E+00  7.5132276474E+00  2.5081977097E-02  2.4642649254E-02  3.6453627442E-01
  5.4900000000E+03  1.7329405229E+00  7.5092379860E+00  2.5150090584E-02  2.4708738728E-02  3.6477711077E-01
  5.4950000000E+03  1.7348448689E+00  7.5052540722E+00  2.5218326485E-02  2.4774943009E-02  3.6501771570E-01
  5.5000000000E+03  1.7367525406E+00  7.5012758926E+00  2.5286684906E-02  2.4841262788E-02  3.6525808969E-01
  5.5050000000E+03  1.7386608389E+00  7.4973384175E+00  2.5355555426E-02  2.4908073833E-02  3.6549823325E-01
  5.5100000000E+03  1.7405694988E+00  7.4934497798E+00  2.5424550464E-02  2.4975002099E-02  3.6573814684E-01
  5.5150000000E+03  1.7424785198E+00  7.4895666834E+00  2.5493670132E-02  2.5042047197E-02  3.6597783096E-01
  5.5200000000E+03  1.7443879018E+00  7.4856891154E+00  2.5562914540E-02  2.5109209216E-02  3.6621728623E-01
  5.5250000000E+03  1.7462976445E+00  7.4818170629E+00  2.5632283800E-02  2.5176488244E-02  3.6645651325E-01
  5.5300000000E+03  1.7482077477E+00  7.4779505130E+00  2.5701778022E-02  2.5243884370E-02  3.6669551257E-01
  5.5350000000E+03  1.7501182110E+00  7.4740894531E+00  2.5771397318E-02  2.5311397680E-02  3.6693428477E-01
  5.5400000000E+03  1.7520290342E+00  7.4702338703E+00  2.5841141799E-02  2.5379028263E-02  3.6717283039E-01
  5.5450000000E+03  1.7539402172E+00  7.4663837519E+00  2.5911011575E-02  2.5446776206E-02  3.6741114999E-01
  5.5500000000E+03  1.7558516211E+00  7.4625390854E+00  2.5981006758E-02  2.5514641568E-02  3.6764924413E-01
  5.5550000000E+03  1.7577633372E+00  7.4586998580E+00  2.6051127458E-02  2.5582624455E-02  3.6788711335E-01
  5.5600000000E+03  1.7596754121E+00  7.4548660572E+00  2.6121373787E-02  2.5650724965E-02  3.6812475820E-01
  5.5650000000E+03  1.7615878454E+00  7.4510376704E+00  2.6191745856E-02  2.5718943186E-02  3.6836217924E-01
  5.5700000000E+03  1.7635006368E+00  7.4472146852E+00  2.6262243776E-02  2.5787279205E-02  3.6859937700E-01
  5.5750000000E+03  1.7654137861E+00  7.4433970891E+00  2.6332867657E-02  2.5855733108E-02  3.6883635203E-01
  5.5800000000E+03  1.7673272931E+00  7.4395848696E+00  2.6403617611E-02  2.5924304985E-02  3.6907310488E-01
  5.5850000000E+03  1.7692411574E+00  7.4357780145E+00  2.6474493749E-02  2.5992994922E-02  3.6930963608E-01
  5.5900000000E+03  1.7711553789E+00  7.4319765112E+00  2.6545496182E-02  2.6061803006E-02  3.6954594617E-01
  5.5950000000E+03  1.7730699573E+00  7.4282352584E+00  2.6616625020E-02  2.6130730003E-02  3.6978203568E-01
  5.6000000000E+03  1.7749848540E+00  7.4245195370E+00  2.6687880375E-02  2.6199775574E-02  3.7001790516E-01
  5.6050000000E+03  1.7769000662E+00  7.4208089878E+00  2.6759262357E-02  2.6268939555E-02  3.7025355513E-01
  5.6100000000E+03  1.7788156344E+00  7.4171035991E+00  2.6830771078E-02  2.6338222042E-02  3.7048898612E-01
  5.6150000000E+03  1.7807315584E+00  7.4134033592E+00  2.6902406649E-02  2.6407623121E-02  3.7072419866E-01
  5.6200000000E+03  1.7826478379E+00  7.4097082563E+00  2.6974169180E-02  2.6477142880E-02  3.7095919328E-01
  5.6250000000E+03  1.7845644727E+00  7.4060182787E+00  2.7046058783E-02  2.6546781405E-02  3.7119397051E-01
  5.6300000000E+03  1.7864814625E+00  7.4023334147E+00  2.7118075568E-02  2.6616538784E-02  3.7142853086E-01
  5.6350000000E+03  1.7883988071E+00  7.3986536528E+00  2.7190219647E-02  2.6686415103E-02  3.7166287487E-01
  5.6400000000E+03  1.7903165063E+00  7.3949789813E+00  2.7262491130E-02  2.6756410449E-02  3.7189700304E-01
  5.6450000000E+03  1.7922345597E+00  7.3913093888E+00  2.7334890129E-02  2.6826524909E-02  3.7213091589E-01
  5.6500000000E+03  1.7941530235E+00  7.3876448636E+00  2.7407416754E-02  2.6896758582E-02  3.7236461395E-01
  5.6550000000E+03  1.7960722322E+00  7.3839853944E+00  2.7480071116E-02  2.6967111631E-02  3.7259809773E-01
  5.6600000000E+03  1.7979917950E+00  7.3803309696E+00  2.7552853327E-02  2.7037584054E-02  3.7283136773E-01
  5.6650000000E+03  1.7999117116E+00  7.3766815780E+00  2.7625763497E-02  2.7108175937E-02  3.7306442448E-01
  5.6700000000E+03  1.8018319818E+00  7.3730372081E+00  2.7698801737E-02  2.7178887368E-02  3.7329726848E-01
  5.6750000000E+03  1.8037526054E+00  7.3693978485E+00  2.7771968157E-02  2.7249718433E-02  3.7352990023E-01
  5.6800000000E+03  1.8056735821E+00  7.3657634881E+00  2.7845262870E-02  2.7320669217E-02  3.7376232025E-01
  5.6850000000E+03  1.8075949117E+00  7.3621866976E+00  2.7918685986E-02  2.7391740536E-02  3.7399452903E-01
  5.6900000000E+03  1.8095165939E+00  7.3586344941E+00  2.7992237616E-02  2.7462932029E-02  3.7422652708E-01
  5.6950000000E+03  1.8114386285E+00  7.3550871223E+00  2.8065917870E-02  2.7534243512E-02  3.7445831491E-01
  5.7000000000E+03  1.8133610151E+00  7.3515445714E+00  2.8139726861E-02  2.7605675070E-02  3.7468989300E-01
  5.7050000000E+03  1.8152840365E+00  7.3480068307E+00  2.8213664697E-02  2.7677226855E-02  3.7492126186E-01
  5.7100000000E+03  1.8172075479E+00  7.3444738894E+00  2.8287731492E-02  2.7748898921E-02  3.7515242198E-01
  5.7150000000E+03  1.8191314112E+00  7.3409457368E+00  2.8361927354E-02  2.7820691321E-02  3.7538337386E-01
  5.7200000000E+03  1.8210556263E+00  7.3374223622E+00  2.8436252396E-02  2.7892604141E-02  3.7561411799E-01
  5.7250000000E+03  1.8229801927E+00  7.3339037550E+00  2.8510706729E-02  2.7964637468E-02  3.7584465485E-01
  5.7300000000E+03  1.8249051103E+00  7.3303899047E+00  2.8585290462E-02  2.8036791386E-02  3.7607498495E-01
  5.7350000000E+03  1.8268303789E+00  7.3268808005E+00  2.8660003708E-02  2.8109065983E-02  3.7630510876E-01
  5.7400000000E+03  1.8287559982E+00  7.3233764320E+00  2.8734846576E-02  2.8181461343E-02  3.7653502678E-01
  5.7450000000E+03  1.8306819679E+00  7.3198767887E+00  2.8809819178E-02  2.8253977552E-02  3.7676473948E-01
  5.7500000000E+03  1.8326082879E+00  7.3163818601E+00  2.8884921625E-02  2.8326614696E-02  3.7699424735E-01
  5.7550000000E+03  1.8345354828E+00  7.3128916357E+00  2.8960154028E-02  2.8399372986E-02  3.7722355087E-01
  5.7600000000E+03  1.8364668800E+00  7.3094061052E+00  2.9035516497E-02  2.8472253309E-02  3.7745265052E-01
  5.7650000000E+03  1.8383986322E+00  7.3059252581E+00  2.9111009143E-02  2.8545254832E-02  3.7768154678E-01
  5.7700000000E+03  1.8403307390E+00  7.3024490842E+00  2.9186632078E-02  2.8618377638E-02  3.7791024013E-01
  5.7750000000E+03  1.8422632002E+00  7.2990077912E+00  2.9262385411E-02  2.8691622282E-02  3.7813873103E-01
  5.7800000000E+03  1.8441960155E+00  7.2956103494E+00  2.9338269255E-02  2.8764988996E-02  3.7836701997E-01
  5.7850000000E+03  1.8461291848E+00  7.2922174247E+00  2.9414283719E-02  2.8838477261E-02  3.7859510742E-01
  5.7900000000E+03  1.8480627078E+00  7.2888290071E+00  2.9490428915E-02  2.8912087164E-02  3.7882299384E-01
  5.7950000000E+03  1.8499965842E+00  7.2854450868E+00  2.9566704954E-02  2.8985818788E-02  3.7905067970E-01
  5.8000000000E+03  1.8519308139E+00  7.2820656540E+00  2.9643111946E-02  2.9059672220E-02  3.7927816547E-01
  5.8050000000E+03  1.8538653964E+00  7.2786906987E+00  2.9719650002E-02  2.9133647544E-02  3.7950545163E-01
  5.8100000000E+03  1.8558005352E+00  7.2753202112E+00  2.9796319234E-02  2.9207744896E-02  3.7973253862E-01
  5.8150000000E+03  1.8577362543E+00  7.2719541819E+00  2.9873119751E-02  2.9281964367E-02  3.7995942692E-01
  5.8200000000E+03  1.8596723262E+00  7.2685926009E+00  2.9950051665E-02  2.9356305986E-02  3.8018611698E-01
  5.8250000000E+03  1.8616087507E+00  7.2652354585E+00  3.0027115087E-02  2.9430769839E-02  3.8041260927E-01
  5.8300000000E+03  1.8635455274E+00  7.2618827452E+00  3.0104310127E-02  2.9505356009E-02  3.8063890425E-01
  5.8350000000E+03  1.8654826562E+00  7.2585344512E+00  3.0181636896E-02  2.9580064582E-02  3.8086500236E-01
  5.8400000000E+03  1.8674201368E+00  7.2551905670E+00  3.0259095506E-02  2.9654895642E-02  3.8109090407E-01
  5.8450000000E+03  1.8693579690E+00  7.2518510829E+00  3.0336686066E-02  2.9729849275E-02  3.8131660983E-01
  5.8500000000E+03  1.8712961526E+00  7.2485159895E+00  3.0414408688E-02  2.9804925564E-02  3.8154212009E-01
  5.8550000000E+03  1.8732346872E+00  7.2451852772E+00  3.0492263483E-02  2.9880124594E-02  3.8176743523E-01
  5.8600000000E+03  1.8751735727E+00  7.2418589366E+00  3.0570250561E-02  2.9955446449E-02  3.8199255575E-01
  5.8650000000E+03  1.8771127824E+00  7.2385369581E+00  3.0648370034E-02  3.0030891208E-02  3.8221748213E-01
  5.8700000000E+03  1.8790523323E+00  7.2352759397E+00  3.0726622011E-02  3.0106459939E-02  3.8244221487E-01
  5.8750000000E+03  1.8809922323E+00  7.2320293170E+00  3.0805006604E-02  3.0182151935E-02  3.8266675447E-01
  5.8800000000E+03  1.8829324822E+00  7.2287869112E+00  3.0883523924E-02  3.0257967106E-02  3.8289110141E-01
  5.8850000000E+03  1.8848730818E+00  7.2255487131E+00  3.0962174081E-02  3.0333905536E-02  3.8311525619E-01
  5.8900000000E+03  1.8868140307E+00  7.2223147139E+00  3.1040957186E-02  3.0409967309E-02  3.8333921929E-01
  5.8950000000E+03  1.8887553289E+00  7.2190849045E+00  3.1119873351E-02  3.0486152509E-02  3.8356299121E-01
  5.9000000000E+03  1.8906969760E+00  7.2158592758E+00  3.1198922685E-02  3.0562461221E-02  3.8378657241E-01
  5.9050000000E+03  1.8926389718E+00  7.2126378191E+00  3.1278105300E-02  3.0638893529E-02  3.8400996340E-01
  5.9100000000E+03  1.8945813161E+00  7.2094205253E+00  3.1357421306E-02  3.0715449515E-02  3.8423316465E-01
  5.9150000000E+03  1.8965240087E+00  7.2062073855E+00  3.1436870814E-02  3.0792129266E-02  3.8445617664E-01
  5.9200000000E+03  1.8984681809E+00  7.2029983910E+00  3.1516453935E-02  3.0868933162E-02  3.8467899985E-01
  5.9250000000E+03  1.9004128626E+00  7.1997935328E+00  3.1596170780E-02  3.0945861035E-02  3.8490163475E-01
  5.9300000000E+03  1.9023578933E+00  7.1965928021E+00  3.1676021459E-02  3.1022912925E-02  3.8512408182E-01
  5.9350000000E+03  1.9043032730E+00  7.1933961901E+00  3.1756006084E-02  3.1100088915E-02  3.8534634154E-01
  5.9400000000E+03  1.9062490013E+00  7.1902036881E+00  3.1836124765E-02  3.1177389091E-02  3.8556841437E-01
  5.9450000000E+03  1.9081950780E+00  7.1870152874E+00  3.1916377612E-02  3.1254813534E-02  3.8579030079E-01
  5.9500000000E+03  1.9101415029E+00  7.1838309792E+00  3.1996764737E-02  3.1332362329E-02  3.8601200127E-01
  5.9550000000E+03  1.9120882757E+00  7.1806507548E+00  3.2077286250E-02  3.1410035560E-02  3.8623351627E-01
  5.9600000000E+03  1.9140353963E+00  7.1774746056E+00  3.2157942262E-02  3.1487833309E-02  3.8645484626E-01
  5.9650000000E+03  1.9159828644E+00  7.1743642058E+00  3.2238732883E-02  3.1565756854E-02  3.8667599170E-01
  5.9700000000E+03  1.9179306797E+00  7.1712602149E+00  3.2319658226E-02  3.1643805144E-02  3.8689695306E-01
  5.9750000000E+03  1.9198788061E+00  7.1681601638E+00  3.2400718399E-02  3.1721978206E-02  3.8711773079E-01
  5.9800000000E+03  1.9218272766E+00  7.1650640442E+00  3.2481913515E-02  3.1800276131E-02  3.8733832536E-01
  5.9850000000E+03  1.9237760937E+00  7.1619718480E+00  3.2563243683E-02  3.1878699003E-02  3.8755873723E-01
  5.9900000000E+03  1.9257252570E+00  7.1588835667E+00  3.2644709014E-02  3.1957246905E-02  3.8777896684E-01
  5.9950000000E+03  1.9276747665E+00  7.1557991923E+00  3.2726309620E-02  3.2035919922E-02  3.8799901467E-01
  6.0000000000E+03  1.9296246218E+00  7.1527187164E+00  3.2808045611E-02  3.2114718134E-02  3.8821888115E-01
  6.0050000000E+03  1.9315748227E+00  7.1496421310E+00  3.2890540848E-02  3.2194239247E-02  3.8843856675E-01
  6.0100000000E+03  1.9335253690E+00  7.1465694279E+00  3.2973174321E-02  3.2273888151E-02  3.8865807190E-01
  6.0150000000E+03  1.9354762604E+00  7.1435005990E+00  3.3055946146E-02  3.2353664933E-02  3.8887739708E-01
  6.0200000000E+03  1.9374274969E+00  7.1404356362E+00  3.3138856438E-02  3.2433569679E-02  3.8909654271E-01
  6.0250000000E+03  1.9393790780E+00  7.1373745313E+00  3.3221905314E-02  3.2513602477E-02  3.8931550925E-01
  6.0300000000E+03  1.9413378178E+00  7.1343172764E+00  3.3305092888E-02  3.2593765333E-02  3.8953429713E-01
  6.0350000000E+03  1.9432978396E+00  7.1312638634E+00  3.3388419276E-02  3.2674056690E-02  3.8975290682E-01
  6.0400000000E+03  1.9452582147E+00  7.1282142843E+00  3.3471884595E-02  3.2754476374E-02  3.8997133874E-01
  6.0450000000E+03  1.9472189428E+00  7.1251685312E+00  3.3555488958E-02  3.2835024470E-02  3.9018959334E-01
  6.0500000000E+03  1.9491800237E+00  7.1221265960E+00  3.3639232483E-02  3.2915701066E-02  3.9040767106E-01
  6.0550000000E+03  1.9511414571E+00  7.1190884708E+00  3.3723115285E-02  3.2996506248E-02  3.9062557233E-01
  6.0600000000E+03  1.9531032428E+00  7.1161015813E+00  3.3807137479E-02  3.3077441127E-02  3.9084329759E-01
  6.0650000000E+03  1.9550653806E+00  7.1131324460E+00  3.3891299181E-02  3.3158505079E-02  3.9106084728E-01
  6.0700000000E+03  1.9570278702E+00  7.1101669947E+00  3.3975600507E-02  3.3239697890E-02  3.9127822183E-01
  6.0750000000E+03  1.9589907114E+00  7.1072052199E+00  3.4060041571E-02  3.3321019644E-02  3.9149542167E-01
  6.0800000000E+03  1.9609539041E+00  7.1042471140E+00  3.4144622491E-02  3.3402470429E-02  3.9171244723E-01
  6.0850000000E+03  1.9629550522E+00  7.1012926694E+00  3.4229343381E-02  3.3484061273E-02  3.9192929895E-01
  6.0900000000E+03  1.9649705134E+00  7.0983418786E+00  3.4314204357E-02  3.3565785456E-02  3.9214597724E-01
  6.0950000000E+03  1.9669863874E+00  7.0953947341E+00  3.4399205534E-02  3.3647639031E-02  3.9236248255E-01
  6.1000000000E+03  1.9690026739E+00  7.0924512284E+00  3.4484347029E-02  3.3729622085E-02  3.9257881528E-01
  6.1050000000E+03  1.9710193727E+00  7.0895113541E+00  3.4569628956E-02  3.3811734705E-02  3.9279497588E-01
  6.1100000000E+03  1.9730364835E+00  7.0865751036E+00  3.4655051432E-02  3.3893976975E-02  3.9301096476E-01
  6.1150000000E+03  1.9750540060E+00  7.0836424695E+00  3.4740614572E-02  3.3976348984E-02  3.9322678233E-01
  6.1200000000E+03  1.9770719401E+00  7.0807134446E+00  3.4826318492E-02  3.4058850816E-02  3.9344242903E-01
  6.1250000000E+03  1.9790902854E+00  7.0777880212E+00  3.4912163306E-02  3.4141482558E-02  3.9365790527E-01
  6.1300000000E+03  1.9811090417E+00  7.0748661922E+00  3.4998149132E-02  3.4224244296E-02  3.9387321147E-01
  6.1350000000E+03  1.9831282087E+00  7.0719479501E+00  3.5084276084E-02  3.4307136116E-02  3.9408834804E-01
  6.1400000000E+03  1.9851483030E+00  7.0690332877E+00  3.5170544278E-02  3.4390158259E-02  3.9430331541E-01
  6.1450000000E+03  1.9871693775E+00  7.0661221976E+00  3.5256953830E-02  3.4473310827E-02  3.9451811397E-01
  6.1500000000E+03  1.9891908632E+00  7.0632146725E+00  3.5343504855E-02  3.4556593737E-02  3.9473274416E-01
  6.1550000000E+03  1.9912127600E+00  7.0603267265E+00  3.5430197468E-02  3.4640007459E-02  3.9494720637E-01
  6.1600000000E+03  1.9932350677E+00  7.0574850762E+00  3.5517031786E-02  3.4723552734E-02  3.9516150101E-01
  6.1650000000E+03  1.9952577859E+00  7.0546468738E+00  3.5604007924E-02  3.4807228620E-02  3.9537562851E-01
  6.1700000000E+03  1.9972809144E+00  7.0518121124E+00  3.5691125998E-02  3.4891035205E-02  3.9558958944E-01
  6.1750000000E+03  1.9993044531E+00  7.0489807850E+00  3.5778386123E-02  3.4974972573E-02  3.9580338433E-01
  6.1800000000E+03  2.0013284015E+00  7.0461528847E+00  3.5865788414E-02  3.5059040809E-02  3.9601701361E-01
  6.1850000000E+03  2.0033527595E+00  7.0433284045E+00  3.5953332988E-02  3.5143240000E-02  3.9623047770E-01
  6.1900000000E+03  2.0053775268E+00  7.0405073375E+00  3.6041019960E-02  3.5227570231E-02  3.9644377704E-01
  6.1950000000E+03  2.0074027822E+00  7.0376896769E+00  3.6128849445E-02  3.5312031610E-02  3.9665691203E-01
  6.2000000000E+03  2.0094290371E+00  7.0348754157E+00  3.6216821560E-02  3.5396624384E-02  3.9686988312E-01
  6.2050000000E+03  2.0114557013E+00  7.0320645473E+00  3.6304936419E-02  3.5481348454E-02  3.9708269071E-01
  6.2100000000E+03  2.0134827747E+00  7.0292570647E+00  3.6393194138E-02  3.5566203906E-02  3.9729533523E-01
  6.2150000000E+03  2.0155102570E+00  7.0264529612E+00  3.6481594834E-02  3.5651190826E-02  3.9750781709E-01
  6.2200000000E+03  2.0175381479E+00  7.0236522299E+00  3.6570138620E-02  3.5736309297E-02  3.9772013672E-01
  6.2250000000E+03  2.0195664473E+00  7.0208548642E+00  3.6658825614E-02  3.5821559405E-02  3.9793229453E-01
  6.2300000000E+03  2.0215951548E+00  7.0180608572E+00  3.6747655931E-02  3.5906941235E-02  3.9814429093E-01
  6.2350000000E+03  2.0236242702E+00  7.0152702022E+00  3.6836629685E-02  3.5992454872E-02  3.9835612634E-01
  6.2400000000E+03  2.0256537933E+00  7.0124828926E+00  3.6925746994E-02  3.6078100400E-02  3.9856780117E-01
  6.2450000000E+03  2.0276837238E+00  7.0096989216E+00  3.7015007972E-02  3.6163877905E-02  3.9877931583E-01
  6.2500000000E+03  2.0297140615E+00  7.0069182827E+00  3.7104412734E-02  3.6249787470E-02  3.9899067073E-01
  6.2550000000E+03  2.0317446798E+00  7.0041667980E+00  3.7193961398E-02  3.6335829836E-02  3.9920186627E-01
  6.2600000000E+03  2.0337756379E+00  7.0014489733E+00  3.7283654077E-02  3.6422005238E-02  3.9941290287E-01
  6.2650000000E+03  2.0358070021E+00  6.9987343718E+00  3.7373490888E-02  3.6508312969E-02  3.9962378094E-01
  6.2700000000E+03  2.0378387724E+00  6.9960229871E+00  3.7463471946E-02  3.6594753113E-02  3.9983450086E-01
  6.2750000000E+03  2.0398709483E+00  6.9933148130E+00  3.7553597367E-02  3.6681325755E-02  4.0004506306E-01
  6.2800000000E+03  2.0419035298E+00  6.9906098430E+00  3.7643867267E-02  3.6768030978E-02  4.0025546792E-01
  6.2850000000E+03  2.0439365165E+00  6.9879080707E+00  3.7734281760E-02  3.6854868867E-02  4.0046571586E-01
  6.2900000000E+03  2.0459699082E+00  6.9852094900E+00  3.7824840963E-02  3.6941839507E-02  4.0067580726E-01
  6.2950000000E+03  2.0480037046E+00  6.9825140944E+00  3.7915544991E-02  3.7028942981E-02  4.0088574253E-01
  6.3000000000E+03  2.0500379056E+00  6.9798218778E+00  3.8006393960E-02  3.7116179373E-02  4.0109552207E-01
  6.3050000000E+03  2.0520725109E+00  6.9771328337E+00  3.8097387985E-02  3.7203548769E-02  4.0130514627E-01
  6.3100000000E+03  2.0541074822E+00  6.9744469560E+00  3.8188527182E-02  3.7291051238E-02  4.0151461552E-01
  6.3150000000E+03  2.0561424534E+00  6.9717642385E+00  3.8279811666E-02  3.7378686745E-02  4.0172393023E-01
  6.3200000000E+03  2.0581778276E+00  6.9690846749E+00  3.8371241553E-02  3.7466455505E-02  4.0193309077E-01
  6.3250000000E+03  2.0602136046E+00  6.9664082590E+00  3.8462816959E-02  3.7554357602E-02  4.0214209754E-01
  6.3300000000E+03  2.0622497842E+00  6.9637349847E+00  3.8554537998E-02  3.7642393121E-02  4.0235095094E-01
  6.3350000000E+03  2.0642863661E+00  6.9610648457E+00  3.8646404788E-02  3.7730562144E-02  4.0255965134E-01
  6.3400000000E+03  2.0663233501E+00  6.9583978360E+00  3.8738417442E-02  3.7818864756E-02  4.0276819915E-01
  6.3450000000E+03  2.0683607360E+00  6.9557339494E+00  3.8830576078E-02  3.7907301039E-02  4.0297659473E-01
  6.3500000000E+03  2.0703985234E+00  6.9530731797E+00  3.8922880809E-02  3.7995871078E-02  4.0318483849E-01
