#[MATERIAL DEFINITION FOR MC-GPU: interaction mean free path and sampling data from PENELOPE 2018]
#[MATERIAL NAME]
# oesophagus                                                    
#[NOMINAL DENSITY (g/cm^3)]
#   1.03000000
#[NUMBER OF DATA VALUES]
#  23002
#[MEAN FREE PATHS (cm) (ie, average distance between interactions)]
#[Energy (eV)     | Rayleigh        | Compton         | Photoelectric   | TOTAL (+pair prod) (cm) | Rayleigh: max cumul prob F^2]
  5.0000000000E+03  1.8430190518E+00  8.2724716215E+00  2.5816004117E-02  2.5381269518E-02  3.4613960398E-01
  5.0050000000E+03  1.8451958825E+00  8.2672629540E+00  2.5893949460E-02  2.5456973440E-02  3.4639990506E-01
  5.0100000000E+03  1.8473731068E+00  8.2620627620E+00  2.5972051687E-02  2.5532824779E-02  3.4665991714E-01
  5.0150000000E+03  1.8495523870E+00  8.2568710233E+00  2.6050310957E-02  2.5608823979E-02  3.4691964084E-01
  5.0200000000E+03  1.8517330563E+00  8.2516877158E+00  2.6128727427E-02  2.5684971042E-02  3.4717907682E-01
  5.0250000000E+03  1.8539141219E+00  8.2465128174E+00  2.6207301256E-02  2.5761265903E-02  3.4743822571E-01
  5.0300000000E+03  1.8560955835E+00  8.2413463061E+00  2.6286032600E-02  2.5837708690E-02  3.4769708815E-01
  5.0350000000E+03  1.8582774408E+00  8.2361881599E+00  2.6364921618E-02  2.5914299529E-02  3.4795566477E-01
  5.0400000000E+03  1.8604596934E+00  8.2310383572E+00  2.6443968467E-02  2.5991038544E-02  3.4821395621E-01
  5.0450000000E+03  1.8626423411E+00  8.2258968760E+00  2.6523173306E-02  2.6067925863E-02  3.4847196310E-01
  5.0500000000E+03  1.8648253835E+00  8.2207636948E+00  2.6602536293E-02  2.6144961611E-02  3.4872968606E-01
  5.0550000000E+03  1.8670088203E+00  8.2156387918E+00  2.6682057584E-02  2.6222145914E-02  3.4898712573E-01
  5.0600000000E+03  1.8691928186E+00  8.2105221458E+00  2.6761737338E-02  2.6299478931E-02  3.4924428272E-01
  5.0650000000E+03  1.8713775219E+00  8.2054137350E+00  2.6841575713E-02  2.6376960816E-02  3.4950115766E-01
  5.0700000000E+03  1.8735626193E+00  8.2003135383E+00  2.6921572866E-02  2.6454591633E-02  3.4975775117E-01
  5.0750000000E+03  1.8757481105E+00  8.1952215343E+00  2.7001728956E-02  2.6532371507E-02  3.5001406387E-01
  5.0800000000E+03  1.8779339951E+00  8.1901377019E+00  2.7082044140E-02  2.6610300565E-02  3.5027009637E-01
  5.0850000000E+03  1.8801202729E+00  8.1851510225E+00  2.7162518576E-02  2.6688379878E-02  3.5052584929E-01
  5.0900000000E+03  1.8823069435E+00  8.1801809055E+00  2.7243152422E-02  2.6766608728E-02  3.5078132324E-01
  5.0950000000E+03  1.8844940066E+00  8.1752186818E+00  2.7323945836E-02  2.6844987149E-02  3.5103651882E-01
  5.1000000000E+03  1.8866814619E+00  8.1702643311E+00  2.7404898975E-02  2.6923515267E-02  3.5129143665E-01
  5.1050000000E+03  1.8888693090E+00  8.1653178333E+00  2.7486011997E-02  2.7002193205E-02  3.5154607733E-01
  5.1100000000E+03  1.8910579915E+00  8.1603791682E+00  2.7567285061E-02  2.7081021182E-02  3.5180044147E-01
  5.1150000000E+03  1.8932470703E+00  8.1554483158E+00  2.7648718323E-02  2.7159999231E-02  3.5205452966E-01
  5.1200000000E+03  1.8954365407E+00  8.1505252562E+00  2.7730311942E-02  2.7239127476E-02  3.5230834251E-01
  5.1250000000E+03  1.8976264023E+00  8.1456099693E+00  2.7812066076E-02  2.7318406044E-02  3.5256188062E-01
  5.1300000000E+03  1.8998166548E+00  8.1407024354E+00  2.7893980882E-02  2.7397835057E-02  3.5281514457E-01
  5.1350000000E+03  1.9020072978E+00  8.1358026346E+00  2.7976056518E-02  2.7477414641E-02  3.5306813497E-01
  5.1400000000E+03  1.9041983312E+00  8.1309105474E+00  2.8058293142E-02  2.7557144920E-02  3.5332085241E-01
  5.1450000000E+03  1.9063897546E+00  8.1260261540E+00  2.8140690912E-02  2.7637026019E-02  3.5357329747E-01
  5.1500000000E+03  1.9085815676E+00  8.1211494350E+00  2.8223249986E-02  2.7717058062E-02  3.5382547074E-01
  5.1550000000E+03  1.9107742361E+00  8.1162803708E+00  2.8305970521E-02  2.7797241271E-02  3.5407737282E-01
  5.1600000000E+03  1.9129676885E+00  8.1114189419E+00  2.8388852676E-02  2.7877575757E-02  3.5432900431E-01
  5.1650000000E+03  1.9151615308E+00  8.1066173608E+00  2.8471896607E-02  2.7958062182E-02  3.5458036604E-01
  5.1700000000E+03  1.9173557627E+00  8.1018652883E+00  2.8555102473E-02  2.8038700559E-02  3.5483145871E-01
  5.1750000000E+03  1.9195503838E+00  8.0971205910E+00  2.8638470432E-02  2.8119490516E-02  3.5508228299E-01
  5.1800000000E+03  1.9217453939E+00  8.0923832504E+00  2.8722000642E-02  2.8200432175E-02  3.5533283958E-01
  5.1850000000E+03  1.9239407926E+00  8.0876532479E+00  2.8805693259E-02  2.8281525661E-02  3.5558312913E-01
  5.1900000000E+03  1.9261365797E+00  8.0829305651E+00  2.8889548443E-02  2.8362771098E-02  3.5583315232E-01
  5.1950000000E+03  1.9283327548E+00  8.0782151838E+00  2.8973566350E-02  2.8444168608E-02  3.5608290982E-01
  5.2000000000E+03  1.9305293264E+00  8.0735070855E+00  2.9057747140E-02  2.8525718319E-02  3.5633240229E-01
  5.2050000000E+03  1.9327273669E+00  8.0688062520E+00  2.9142090968E-02  2.8607420588E-02  3.5658163040E-01
  5.2100000000E+03  1.9349257961E+00  8.0641126652E+00  2.9226597994E-02  2.8689275303E-02  3.5683059480E-01
  5.2150000000E+03  1.9371246134E+00  8.0594263070E+00  2.9311268375E-02  2.8771282588E-02  3.5707929616E-01
  5.2200000000E+03  1.9393238187E+00  8.0547471592E+00  2.9396102269E-02  2.8853442567E-02  3.5732773513E-01
  5.2250000000E+03  1.9415234117E+00  8.0500752040E+00  2.9481099834E-02  2.8935755362E-02  3.5757591236E-01
  5.2300000000E+03  1.9437233920E+00  8.0454104234E+00  2.9566261227E-02  2.9018221096E-02  3.5782382851E-01
  5.2350000000E+03  1.9459237594E+00  8.0407527995E+00  2.9651586606E-02  2.9100839894E-02  3.5807148423E-01
  5.2400000000E+03  1.9481245135E+00  8.0361023145E+00  2.9737076129E-02  2.9183611876E-02  3.5831888015E-01
  5.2450000000E+03  1.9503256540E+00  8.0314589508E+00  2.9822729954E-02  2.9266537168E-02  3.5856601692E-01
  5.2500000000E+03  1.9525288856E+00  8.0269075959E+00  2.9908548239E-02  2.9349617410E-02  3.5881289519E-01
  5.2550000000E+03  1.9547352190E+00  8.0223692494E+00  2.9994531141E-02  2.9432851921E-02  3.5905951560E-01
  5.2600000000E+03  1.9569419437E+00  8.0178377811E+00  3.0080678819E-02  2.9516240130E-02  3.5930587877E-01
  5.2650000000E+03  1.9591490593E+00  8.0133131743E+00  3.0166991429E-02  2.9599782160E-02  3.5955198535E-01
  5.2700000000E+03  1.9613565657E+00  8.0087954120E+00  3.0253469130E-02  2.9683478135E-02  3.5979783596E-01
  5.2750000000E+03  1.9635644624E+00  8.0042844774E+00  3.0340112080E-02  2.9767328176E-02  3.6004343124E-01
  5.2800000000E+03  1.9657727493E+00  7.9997803537E+00  3.0426920435E-02  2.9851332405E-02  3.6028877181E-01
  5.2850000000E+03  1.9679814259E+00  7.9952830241E+00  3.0513894356E-02  2.9935490946E-02  3.6053385830E-01
  5.2900000000E+03  1.9701904920E+00  7.9907924721E+00  3.0601033998E-02  3.0019803921E-02  3.6077869133E-01
  5.2950000000E+03  1.9723999474E+00  7.9863086811E+00  3.0688339519E-02  3.0104271451E-02  3.6102327152E-01
  5.3000000000E+03  1.9746096923E+00  7.9818316344E+00  3.0775811078E-02  3.0188893636E-02  3.6126759949E-01
  5.3050000000E+03  1.9768197777E+00  7.9773613155E+00  3.0863448833E-02  3.0273670609E-02  3.6151167585E-01
  5.3100000000E+03  1.9790302511E+00  7.9728977081E+00  3.0951252940E-02  3.0358602503E-02  3.6175550122E-01
  5.3150000000E+03  1.9812411124E+00  7.9684407958E+00  3.1039223558E-02  3.0443689441E-02  3.6199907622E-01
  5.3200000000E+03  1.9834523612E+00  7.9639905622E+00  3.1127360845E-02  3.0528931543E-02  3.6224240144E-01
  5.3250000000E+03  1.9856639972E+00  7.9595469911E+00  3.1215664958E-02  3.0614328932E-02  3.6248547750E-01
  5.3300000000E+03  1.9878760201E+00  7.9551139675E+00  3.1304136055E-02  3.0699881787E-02  3.6272830500E-01
  5.3350000000E+03  1.9900884296E+00  7.9507715406E+00  3.1392774295E-02  3.0785591431E-02  3.6297088454E-01
  5.3400000000E+03  1.9923012255E+00  7.9464355486E+00  3.1481579833E-02  3.0871456741E-02  3.6321321673E-01
  5.3450000000E+03  1.9945144074E+00  7.9421059760E+00  3.1570552830E-02  3.0957477839E-02  3.6345530216E-01
  5.3500000000E+03  1.9967273824E+00  7.9377828072E+00  3.1659693441E-02  3.1043654702E-02  3.6369714143E-01
  5.3550000000E+03  1.9989406550E+00  7.9334660268E+00  3.1749001826E-02  3.1129987572E-02  3.6393873514E-01
  5.3600000000E+03  2.0011543118E+00  7.9291556195E+00  3.1838478141E-02  3.1216476592E-02  3.6418008387E-01
  5.3650000000E+03  2.0033683527E+00  7.9248515698E+00  3.1928122545E-02  3.1303121883E-02  3.6442118821E-01
  5.3700000000E+03  2.0055827773E+00  7.9205538626E+00  3.2017935195E-02  3.1389923566E-02  3.6466204876E-01
  5.3750000000E+03  2.0077975852E+00  7.9162624825E+00  3.2107916249E-02  3.1476881761E-02  3.6490266610E-01
  5.3800000000E+03  2.0100127763E+00  7.9119774143E+00  3.2198065865E-02  3.1563996590E-02  3.6514304081E-01
  5.3850000000E+03  2.0122283503E+00  7.9076986430E+00  3.2288384200E-02  3.1651268173E-02  3.6538317347E-01
  5.3900000000E+03  2.0144443067E+00  7.9034261534E+00  3.2378871413E-02  3.1738696631E-02  3.6562306467E-01
  5.3950000000E+03  2.0166606454E+00  7.8991599306E+00  3.2469527661E-02  3.1826282085E-02  3.6586271498E-01
  5.4000000000E+03  2.0188786010E+00  7.8948999594E+00  3.2560353102E-02  3.1914024962E-02  3.6610212497E-01
  5.4050000000E+03  2.0210969675E+00  7.8906462251E+00  3.2651347893E-02  3.2001925086E-02  3.6634129523E-01
  5.4100000000E+03  2.0233157171E+00  7.8863987126E+00  3.2742512193E-02  3.2089982568E-02  3.6658022632E-01
  5.4150000000E+03  2.0255348493E+00  7.8821574072E+00  3.2833846159E-02  3.2178197530E-02  3.6681891881E-01
  5.4200000000E+03  2.0277543640E+00  7.8779973137E+00  3.2925349949E-02  3.2266571349E-02  3.6705737326E-01
  5.4250000000E+03  2.0299742608E+00  7.8738530911E+00  3.3017023721E-02  3.2355103068E-02  3.6729559025E-01
  5.4300000000E+03  2.0321945394E+00  7.8697148634E+00  3.3108867631E-02  3.2443792643E-02  3.6753357034E-01
  5.4350000000E+03  2.0344151996E+00  7.8655826164E+00  3.3200881840E-02  3.2532640192E-02  3.6777131409E-01
  5.4400000000E+03  2.0366362411E+00  7.8614563360E+00  3.3293066502E-02  3.2621645837E-02  3.6800882206E-01
  5.4450000000E+03  2.0388576635E+00  7.8573360080E+00  3.3385421778E-02  3.2710809697E-02  3.6824609480E-01
  5.4500000000E+03  2.0411551970E+00  7.8532216184E+00  3.3477947824E-02  3.2800151448E-02  3.6848313288E-01
  5.4550000000E+03  2.0434536665E+00  7.8491131532E+00  3.3570644798E-02  3.2889651924E-02  3.6871993685E-01
  5.4600000000E+03  2.0457526149E+00  7.8450105985E+00  3.3663512859E-02  3.2979311127E-02  3.6895650725E-01
  5.4650000000E+03  2.0480520419E+00  7.8409139404E+00  3.3756552162E-02  3.3069129179E-02  3.6919284464E-01
  5.4700000000E+03  2.0503519470E+00  7.8368231650E+00  3.3849762868E-02  3.3159106198E-02  3.6942894957E-01
  5.4750000000E+03  2.0526523300E+00  7.8327382585E+00  3.3943145132E-02  3.3249242305E-02  3.6966482258E-01
  5.4800000000E+03  2.0549531905E+00  7.8286592071E+00  3.4036699113E-02  3.3339537619E-02  3.6990046421E-01
  5.4850000000E+03  2.0572545282E+00  7.8245859971E+00  3.4130424969E-02  3.3429992261E-02  3.7013587502E-01
  5.4900000000E+03  2.0595563427E+00  7.8205186149E+00  3.4224322857E-02  3.3520606350E-02  3.7037105554E-01
  5.4950000000E+03  2.0618586338E+00  7.8164570467E+00  3.4318392936E-02  3.3611380006E-02  3.7060600631E-01
  5.5000000000E+03  2.0641651888E+00  7.8124012791E+00  3.4412635362E-02  3.3702314358E-02  3.7084072786E-01
  5.5050000000E+03  2.0664725631E+00  7.8083879187E+00  3.4507540178E-02  3.3793879131E-02  3.7107522074E-01
  5.5100000000E+03  2.0687804185E+00  7.8044254806E+00  3.4602619927E-02  3.3885606797E-02  3.7130948547E-01
  5.5150000000E+03  2.0710887545E+00  7.8004686447E+00  3.4697874772E-02  3.3977496637E-02  3.7154352260E-01
  5.5200000000E+03  2.0733975708E+00  7.7965173978E+00  3.4793304876E-02  3.4069548775E-02  3.7177733280E-01
  5.5250000000E+03  2.0757068670E+00  7.7925717271E+00  3.4888910400E-02  3.4161763332E-02  3.7201091675E-01
  5.5300000000E+03  2.0780166429E+00  7.7886316196E+00  3.4984691507E-02  3.4254140432E-02  3.7224427506E-01
  5.5350000000E+03  2.0803268980E+00  7.7846970625E+00  3.5080648359E-02  3.4346680198E-02  3.7247740835E-01
  5.5400000000E+03  2.0826376322E+00  7.7807680430E+00  3.5176781120E-02  3.4439382753E-02  3.7271031724E-01
  5.5450000000E+03  2.0849488449E+00  7.7768445483E+00  3.5273089950E-02  3.4532248219E-02  3.7294300234E-01
  5.5500000000E+03  2.0872601563E+00  7.7729265656E+00  3.5369575014E-02  3.4625276615E-02  3.7317546427E-01
  5.5550000000E+03  2.0895718171E+00  7.7690140822E+00  3.5466236473E-02  3.4718468131E-02  3.7340770363E-01
  5.5600000000E+03  2.0918839549E+00  7.7651070856E+00  3.5563074489E-02  3.4811822926E-02  3.7363972104E-01
  5.5650000000E+03  2.0941965693E+00  7.7612055630E+00  3.5660089226E-02  3.4905341120E-02  3.7387151710E-01
  5.5700000000E+03  2.0965096601E+00  7.7573095019E+00  3.5757280845E-02  3.4999022837E-02  3.7410309242E-01
  5.5750000000E+03  2.0988232268E+00  7.7534188897E+00  3.5854649509E-02  3.5092868199E-02  3.7433444759E-01
  5.5800000000E+03  2.1011372691E+00  7.7495337140E+00  3.5952195380E-02  3.5186877327E-02  3.7456558322E-01
  5.5850000000E+03  2.1034517868E+00  7.7456539623E+00  3.6049918621E-02  3.5281050345E-02  3.7479649989E-01
  5.5900000000E+03  2.1057667794E+00  7.7417796222E+00  3.6147819394E-02  3.5375387373E-02  3.7502719821E-01
  5.5950000000E+03  2.1080822468E+00  7.7379679925E+00  3.6245897863E-02  3.5469889738E-02  3.7525767877E-01
  5.6000000000E+03  2.1103984216E+00  7.7341828383E+00  3.6344154188E-02  3.5564556884E-02  3.7548794216E-01
  5.6050000000E+03  2.1127153195E+00  7.7304029113E+00  3.6442588533E-02  3.5659388496E-02  3.7571798897E-01
  5.6100000000E+03  2.1150326917E+00  7.7266281996E+00  3.6541201060E-02  3.5754384625E-02  3.7594781977E-01
  5.6150000000E+03  2.1173505379E+00  7.7228586914E+00  3.6639991931E-02  3.5849545391E-02  3.7617743516E-01
  5.6200000000E+03  2.1196688578E+00  7.7190943749E+00  3.6738961310E-02  3.5944870917E-02  3.7640683572E-01
  5.6250000000E+03  2.1219876510E+00  7.7153352383E+00  3.6838109358E-02  3.6040361325E-02  3.7663602203E-01
  5.6300000000E+03  2.1243069172E+00  7.7115812699E+00  3.6937436238E-02  3.6136016734E-02  3.7686499466E-01
  5.6350000000E+03  2.1266266560E+00  7.7078324581E+00  3.7036942112E-02  3.6231837267E-02  3.7709375418E-01
  5.6400000000E+03  2.1289468673E+00  7.7040887910E+00  3.7136627143E-02  3.6327823045E-02  3.7732230118E-01
  5.6450000000E+03  2.1312675506E+00  7.7003502573E+00  3.7236491493E-02  3.6423974189E-02  3.7755063622E-01
  5.6500000000E+03  2.1335888044E+00  7.6966168452E+00  3.7336535325E-02  3.6520290849E-02  3.7777875987E-01
  5.6550000000E+03  2.1359112161E+00  7.6928885433E+00  3.7436758801E-02  3.6616773318E-02  3.7800667270E-01
  5.6600000000E+03  2.1382340999E+00  7.6891653399E+00  3.7537162083E-02  3.6713421517E-02  3.7823437528E-01
  5.6650000000E+03  2.1405574555E+00  7.6854472238E+00  3.7637745335E-02  3.6810235567E-02  3.7846186815E-01
  5.6700000000E+03  2.1428812824E+00  7.6817341834E+00  3.7738508719E-02  3.6907215589E-02  3.7868915190E-01
  5.6750000000E+03  2.1452055806E+00  7.6780262073E+00  3.7839452396E-02  3.7004361703E-02  3.7891622707E-01
  5.6800000000E+03  2.1475303495E+00  7.6743232842E+00  3.7940576530E-02  3.7101674029E-02  3.7914309422E-01
  5.6850000000E+03  2.1498555889E+00  7.6706801085E+00  3.8041881283E-02  3.7199153974E-02  3.7936975390E-01
  5.6900000000E+03  2.1521812984E+00  7.6670623669E+00  3.8143366817E-02  3.7296800872E-02  3.7959620668E-01
  5.6950000000E+03  2.1545074779E+00  7.6634495069E+00  3.8245033295E-02  3.7394614361E-02  3.7982245309E-01
  5.7000000000E+03  2.1568341268E+00  7.6598415176E+00  3.8346880880E-02  3.7492594562E-02  3.8004849369E-01
  5.7050000000E+03  2.1591610391E+00  7.6562383884E+00  3.8448909734E-02  3.7590741534E-02  3.8027432902E-01
  5.7100000000E+03  2.1614883196E+00  7.6526401082E+00  3.8551120019E-02  3.7689055427E-02  3.8049995963E-01
  5.7150000000E+03  2.1638160682E+00  7.6490466664E+00  3.8653511897E-02  3.7787536391E-02  3.8072538607E-01
  5.7200000000E+03  2.1661442847E+00  7.6454580523E+00  3.8756085532E-02  3.7886184546E-02  3.8095060887E-01
  5.7250000000E+03  2.1684729687E+00  7.6418742552E+00  3.8858841086E-02  3.7985000013E-02  3.8117562857E-01
  5.7300000000E+03  2.1708021200E+00  7.6382952643E+00  3.8961778721E-02  3.8083982911E-02  3.8140044571E-01
  5.7350000000E+03  2.1731317383E+00  7.6347210691E+00  3.9064898600E-02  3.8183133358E-02  3.8162506082E-01
  5.7400000000E+03  2.1754618231E+00  7.6311516589E+00  3.9168200886E-02  3.8282451476E-02  3.8184947444E-01
  5.7450000000E+03  2.1777923743E+00  7.6275870232E+00  3.9271685740E-02  3.8381937382E-02  3.8207368710E-01
  5.7500000000E+03  2.1801233914E+00  7.6240271515E+00  3.9375353325E-02  3.8481591197E-02  3.8229769933E-01
  5.7550000000E+03  2.1824550170E+00  7.6204720333E+00  3.9479203804E-02  3.8581413084E-02  3.8252151165E-01
  5.7600000000E+03  2.1847881561E+00  7.6169216580E+00  3.9583237339E-02  3.8681403447E-02  3.8274512460E-01
  5.7650000000E+03  2.1871217618E+00  7.6133760153E+00  3.9687454092E-02  3.8781562078E-02  3.8296853869E-01
  5.7700000000E+03  2.1894558337E+00  7.6098350948E+00  3.9791854228E-02  3.8881889096E-02  3.8319175445E-01
  5.7750000000E+03  2.1917903716E+00  7.6063302205E+00  3.9896437906E-02  3.8982385444E-02  3.8341477240E-01
  5.7800000000E+03  2.1941253751E+00  7.6028706958E+00  4.0001205291E-02  3.9083051500E-02  3.8363759305E-01
  5.7850000000E+03  2.1964608439E+00  7.5994157339E+00  4.0106156545E-02  3.9183886320E-02  3.8386021694E-01
  5.7900000000E+03  2.1987967777E+00  7.5959653248E+00  4.0211291830E-02  3.9284890022E-02  3.8408264456E-01
  5.7950000000E+03  2.2011331763E+00  7.5925194587E+00  4.0316611308E-02  3.9386062724E-02  3.8430487643E-01
  5.8000000000E+03  2.2034700392E+00  7.5890781255E+00  4.0422115143E-02  3.9487404545E-02  3.8452691307E-01
  5.8050000000E+03  2.2058073662E+00  7.5856413156E+00  4.0527803496E-02  3.9588915604E-02  3.8474875498E-01
  5.8100000000E+03  2.2081458249E+00  7.5822090190E+00  4.0633676531E-02  3.9690596234E-02  3.8497040267E-01
  5.8150000000E+03  2.2104854956E+00  7.5787812259E+00  4.0739734409E-02  3.9792446582E-02  3.8519185666E-01
  5.8200000000E+03  2.2128256313E+00  7.5753579266E+00  4.0845977294E-02  3.9894466525E-02  3.8541311743E-01
  5.8250000000E+03  2.2151662316E+00  7.5719391113E+00  4.0952405347E-02  3.9996656182E-02  3.8563418550E-01
  5.8300000000E+03  2.2175072962E+00  7.5685247703E+00  4.1059018732E-02  4.0099015670E-02  3.8585506137E-01
  5.8350000000E+03  2.2198488248E+00  7.5651148939E+00  4.1165817610E-02  4.0201545107E-02  3.8607574554E-01
  5.8400000000E+03  2.2221908172E+00  7.5617094724E+00  4.1272802145E-02  4.0304244611E-02  3.8629623849E-01
  5.8450000000E+03  2.2245332729E+00  7.5583084963E+00  4.1379972498E-02  4.0407114300E-02  3.8651654074E-01
  5.8500000000E+03  2.2268761918E+00  7.5549119560E+00  4.1487328833E-02  4.0510154290E-02  3.8673665277E-01
  5.8550000000E+03  2.2292195735E+00  7.5515198417E+00  4.1594871311E-02  4.0613364701E-02  3.8695657507E-01
  5.8600000000E+03  2.2315634177E+00  7.5481321442E+00  4.1702600096E-02  4.0716745649E-02  3.8717630816E-01
  5.8650000000E+03  2.2339078553E+00  7.5447488537E+00  4.1810515350E-02  4.0820297294E-02  3.8739585261E-01
  5.8700000000E+03  2.2362528049E+00  7.5414284588E+00  4.1918617235E-02  4.0924021451E-02  3.8761520894E-01
  5.8750000000E+03  2.2385982165E+00  7.5381228414E+00  4.2026905914E-02  4.1027916825E-02  3.8783437771E-01
  5.8800000000E+03  2.2409440895E+00  7.5348214832E+00  4.2135381549E-02  4.1131983226E-02  3.8805335945E-01
  5.8850000000E+03  2.2432904237E+00  7.5315243751E+00  4.2244044304E-02  4.1236220771E-02  3.8827215471E-01
  5.8900000000E+03  2.2456372189E+00  7.5282315081E+00  4.2352894340E-02  4.1340629577E-02  3.8849076402E-01
  5.8950000000E+03  2.2479844746E+00  7.5249428730E+00  4.2461931819E-02  4.1445209761E-02  3.8870918791E-01
  5.9000000000E+03  2.2503321907E+00  7.5216584608E+00  4.2571156906E-02  4.1549961439E-02  3.8892742691E-01
  5.9050000000E+03  2.2526803668E+00  7.5183782626E+00  4.2680569761E-02  4.1654884728E-02  3.8914548156E-01
  5.9100000000E+03  2.2550290026E+00  7.5151022693E+00  4.2790170549E-02  4.1759979744E-02  3.8936335239E-01
  5.9150000000E+03  2.2573780978E+00  7.5118304721E+00  4.2899959430E-02  4.1865246605E-02  3.8958103993E-01
  5.9200000000E+03  2.2597291622E+00  7.5085628620E+00  4.3009936568E-02  4.1970685948E-02  3.8979854469E-01
  5.9250000000E+03  2.2620809012E+00  7.5052994302E+00  4.3120102125E-02  4.2076297445E-02  3.9001586720E-01
  5.9300000000E+03  2.2644331009E+00  7.5020401677E+00  4.3230456264E-02  4.2182081139E-02  3.9023300798E-01
  5.9350000000E+03  2.2667857609E+00  7.4987850658E+00  4.3340999147E-02  4.2288037146E-02  3.9044996756E-01
  5.9400000000E+03  2.2691388810E+00  7.4955341156E+00  4.3451730937E-02  4.2394165583E-02  3.9066674645E-01
  5.9450000000E+03  2.2714924608E+00  7.4922873084E+00  4.3562651796E-02  4.2500466565E-02  3.9088334516E-01
  5.9500000000E+03  2.2738465001E+00  7.4890446353E+00  4.3673761887E-02  4.2606940208E-02  3.9109976421E-01
  5.9550000000E+03  2.2762009985E+00  7.4858060877E+00  4.3785061373E-02  4.2713586628E-02  3.9131600412E-01
  5.9600000000E+03  2.2785559558E+00  7.4825716568E+00  4.3896550416E-02  4.2820405940E-02  3.9153206539E-01
  5.9650000000E+03  2.2809113717E+00  7.4794048569E+00  4.4008229178E-02  4.2927400353E-02  3.9174794853E-01
  5.9700000000E+03  2.2832672458E+00  7.4762445788E+00  4.4120097822E-02  4.3034567993E-02  3.9196365405E-01
  5.9750000000E+03  2.2856230654E+00  7.4730882800E+00  4.4232156511E-02  4.3141908712E-02  3.9217918245E-01
  5.9800000000E+03  2.2879793035E+00  7.4699359523E+00  4.4344405407E-02  4.3249422792E-02  3.9239453424E-01
  5.9850000000E+03  2.2903359983E+00  7.4667875872E+00  4.4456844673E-02  4.3357110362E-02  3.9260970992E-01
  5.9900000000E+03  2.2926931496E+00  7.4636431765E+00  4.4569474471E-02  4.3464971537E-02  3.9282470999E-01
  5.9950000000E+03  2.2950507569E+00  7.4605027120E+00  4.4682294965E-02  4.3573006431E-02  3.9303953495E-01
  6.0000000000E+03  2.2974088201E+00  7.4573661853E+00  4.4795306315E-02  4.3681215161E-02  3.9325418530E-01
  6.0050000000E+03  2.2997673388E+00  7.4542335884E+00  4.4909302533E-02  4.3790352624E-02  3.9346866152E-01
  6.0100000000E+03  2.3021263128E+00  7.4511049129E+00  4.5023493324E-02  4.3899667234E-02  3.9368296412E-01
  6.0150000000E+03  2.3044857418E+00  7.4479801508E+00  4.5137878855E-02  4.4009159113E-02  3.9389709358E-01
  6.0200000000E+03  2.3068456254E+00  7.4448592939E+00  4.5252459296E-02  4.4118828378E-02  3.9411105039E-01
  6.0250000000E+03  2.3092059634E+00  7.4417423340E+00  4.5367234816E-02  4.4228675151E-02  3.9432483505E-01
  6.0300000000E+03  2.3115745979E+00  7.4386292631E+00  4.5482205584E-02  4.4338702435E-02  3.9453844804E-01
  6.0350000000E+03  2.3139447658E+00  7.4355200731E+00  4.5597371769E-02  4.4448907880E-02  3.9475188984E-01
  6.0400000000E+03  2.3163153981E+00  7.4324147560E+00  4.5712733541E-02  4.4559291214E-02  3.9496516094E-01
  6.0450000000E+03  2.3186864944E+00  7.4293133038E+00  4.5828291067E-02  4.4669852554E-02  3.9517826182E-01
  6.0500000000E+03  2.3210580546E+00  7.4262157083E+00  4.5944044517E-02  4.4780592021E-02  3.9539119296E-01
  6.0550000000E+03  2.3234300781E+00  7.4231219617E+00  4.6059994061E-02  4.4891509734E-02  3.9560395484E-01
  6.0600000000E+03  2.3258025649E+00  7.4200808093E+00  4.6176139867E-02  4.5002607604E-02  3.9581654794E-01
  6.0650000000E+03  2.3281755146E+00  7.4170578394E+00  4.6292482105E-02  4.5113884510E-02  3.9602897272E-01
  6.0700000000E+03  2.3305489268E+00  7.4140385906E+00  4.6409020943E-02  4.5225340040E-02  3.9624122967E-01
  6.0750000000E+03  2.3329228014E+00  7.4110230554E+00  4.6525756550E-02  4.5336974314E-02  3.9645331926E-01
  6.0800000000E+03  2.3352971380E+00  7.4080112260E+00  4.6642689096E-02  4.5448787451E-02  3.9666524195E-01
  6.0850000000E+03  2.3377148173E+00  7.4050030950E+00  4.6759818750E-02  4.5560795857E-02  3.9687699822E-01
  6.0900000000E+03  2.3401488809E+00  7.4019986547E+00  4.6877145680E-02  4.5672989521E-02  3.9708858854E-01
  6.0950000000E+03  2.3425834782E+00  7.3989978976E+00  4.6994670057E-02  4.5785362560E-02  3.9730001336E-01
  6.1000000000E+03  2.3450186088E+00  7.3960008161E+00  4.7112392048E-02  4.5897915091E-02  3.9751127316E-01
  6.1050000000E+03  2.3474542724E+00  7.3930074028E+00  4.7230311824E-02  4.6010647234E-02  3.9772236840E-01
  6.1100000000E+03  2.3498904688E+00  7.3900176501E+00  4.7348429553E-02  4.6123559108E-02  3.9793329954E-01
  6.1150000000E+03  2.3523271975E+00  7.3870315506E+00  4.7466745404E-02  4.6236650830E-02  3.9814406703E-01
  6.1200000000E+03  2.3547644584E+00  7.3840490969E+00  4.7585259547E-02  4.6349922520E-02  3.9835467135E-01
  6.1250000000E+03  2.3572022509E+00  7.3810702814E+00  4.7703972150E-02  4.6463374296E-02  3.9856511294E-01
  6.1300000000E+03  2.3596405750E+00  7.3780950969E+00  4.7822883383E-02  4.6577006275E-02  3.9877539226E-01
  6.1350000000E+03  2.3620794301E+00  7.3751235359E+00  4.7941993414E-02  4.6690818577E-02  3.9898550976E-01
  6.1400000000E+03  2.3645189864E+00  7.3721555911E+00  4.8061302414E-02  4.6804811386E-02  3.9919546590E-01
  6.1450000000E+03  2.3669592611E+00  7.3691912551E+00  4.8180810551E-02  4.6918984827E-02  3.9940526113E-01
  6.1500000000E+03  2.3694000664E+00  7.3662305207E+00  4.8300517994E-02  4.7033338946E-02  3.9961489590E-01
  6.1550000000E+03  2.3718414019E+00  7.3632898361E+00  4.8420424913E-02  4.7147874534E-02  3.9982437066E-01
  6.1600000000E+03  2.3742832675E+00  7.3603966434E+00  4.8540531476E-02  4.7262592852E-02  4.0003368585E-01
  6.1650000000E+03  2.3767256627E+00  7.3575069335E+00  4.8660837853E-02  4.7377492225E-02  4.0024284192E-01
  6.1700000000E+03  2.3791685873E+00  7.3546206995E+00  4.8781344213E-02  4.7492572770E-02  4.0045183954E-01
  6.1750000000E+03  2.3816120410E+00  7.3517379343E+00  4.8902050725E-02  4.7607834605E-02  4.0066067932E-01
  6.1800000000E+03  2.3840560233E+00  7.3488586309E+00  4.9022957558E-02  4.7723277846E-02  4.0086936172E-01
  6.1850000000E+03  2.3865005341E+00  7.3459827824E+00  4.9144064881E-02  4.7838902612E-02  4.0107788720E-01
  6.1900000000E+03  2.3889455729E+00  7.3431103820E+00  4.9265372864E-02  4.7954709019E-02  4.0128625623E-01
  6.1950000000E+03  2.3913911555E+00  7.3402414225E+00  4.9386881676E-02  4.8070697192E-02  4.0149446929E-01
  6.2000000000E+03  2.3938373847E+00  7.3373758973E+00  4.9508591486E-02  4.8186867288E-02  4.0170252683E-01
  6.2050000000E+03  2.3962841413E+00  7.3345137993E+00  4.9630502463E-02  4.8303219377E-02  4.0191042931E-01
  6.2100000000E+03  2.3987314248E+00  7.3316551217E+00  4.9752614777E-02  4.8419753576E-02  4.0211817719E-01
  6.2150000000E+03  2.4011792351E+00  7.3287998577E+00  4.9874928596E-02  4.8536470002E-02  4.0232577094E-01
  6.2200000000E+03  2.4036275717E+00  7.3259480005E+00  4.9997444090E-02  4.8653368770E-02  4.0253321101E-01
  6.2250000000E+03  2.4060764344E+00  7.3230995433E+00  5.0120161428E-02  4.8770449998E-02  4.0274049785E-01
  6.2300000000E+03  2.4085258230E+00  7.3202544793E+00  5.0243080779E-02  4.8887713803E-02  4.0294763192E-01
  6.2350000000E+03  2.4109757369E+00  7.3174128017E+00  5.0366202313E-02  4.9005160299E-02  4.0315461368E-01
  6.2400000000E+03  2.4134261761E+00  7.3145745038E+00  5.0489526198E-02  4.9122789604E-02  4.0336144357E-01
  6.2450000000E+03  2.4158771401E+00  7.3117395789E+00  5.0613052604E-02  4.9240601834E-02  4.0356812205E-01
  6.2500000000E+03  2.4183286286E+00  7.3089080202E+00  5.0736781701E-02  4.9358597105E-02  4.0377464956E-01
  6.2550000000E+03  2.4207807135E+00  7.3061063323E+00  5.0860713656E-02  4.9476776778E-02  4.0398102654E-01
  6.2600000000E+03  2.4232333607E+00  7.3033391407E+00  5.0984848641E-02  4.9595141189E-02  4.0418725346E-01
  6.2650000000E+03  2.4256865316E+00  7.3005752052E+00  5.1109186823E-02  4.9713689014E-02  4.0439333074E-01
  6.2700000000E+03  2.4281402259E+00  7.2978145194E+00  5.1233728372E-02  4.9832420369E-02  4.0459925884E-01
  6.2750000000E+03  2.4305944434E+00  7.2950570769E+00  5.1358473458E-02  4.9951335369E-02  4.0480503819E-01
  6.2800000000E+03  2.4330491838E+00  7.2923028714E+00  5.1483422249E-02  5.0070434130E-02  4.0501066923E-01
  6.2850000000E+03  2.4355044466E+00  7.2895518965E+00  5.1608574916E-02  5.0189716766E-02  4.0521615241E-01
  6.2900000000E+03  2.4379602317E+00  7.2868041457E+00  5.1733931626E-02  5.0309183395E-02  4.0542148815E-01
  6.2950000000E+03  2.4404165387E+00  7.2840596128E+00  5.1859492550E-02  5.0428834130E-02  4.0562667691E-01
  6.3000000000E+03  2.4428733674E+00  7.2813182915E+00  5.1985257857E-02  5.0548669087E-02  4.0583171910E-01
  6.3050000000E+03  2.4453307173E+00  7.2785801754E+00  5.2111227716E-02  5.0668688381E-02  4.0603661516E-01
  6.3100000000E+03  2.4477885334E+00  7.2758452583E+00  5.2237402296E-02  5.0788892103E-02  4.0624136553E-01
  6.3150000000E+03  2.4502462867E+00  7.2731135338E+00  5.2363781766E-02  5.0909280140E-02  4.0644597063E-01
  6.3200000000E+03  2.4527045596E+00  7.2703849958E+00  5.2490366297E-02  5.1029852857E-02  4.0665043090E-01
  6.3250000000E+03  2.4551633518E+00  7.2676596380E+00  5.2617156056E-02  5.1150610367E-02  4.0685474676E-01
  6.3300000000E+03  2.4576226630E+00  7.2649374542E+00  5.2744151215E-02  5.1271552786E-02  4.0705891864E-01
  6.3350000000E+03  2.4600824930E+00  7.2622184382E+00  5.2871351941E-02  5.1392680229E-02  4.0726294696E-01
  6.3400000000E+03  2.4625428414E+00  7.2595025838E+00  5.2998758404E-02  5.1513992808E-02  4.0746683215E-01
  6.3450000000E+03  2.4650037079E+00  7.2567898849E+00  5.3126370773E-02  5.1635490640E-02  4.0767057463E-01
  6.3500000000E+03  2.4674650923E+00  7.2540803352E+00  5.3254189218E-02  5.1757173837E-02  4.0787417482E-01
