#[MATERIAL DEFINITION FOR MC-GPU: interaction mean free path and sampling data from PENELOPE 2018]
#[MATERIAL NAME]
# lung                                                          
#[NOMINAL DENSITY (g/cm^3)]
#   0.38500000
#[NUMBER OF DATA VALUES]
#  23002
#[MEAN FREE PATHS (cm) (ie, average distance between interactions)]
#[Energy (eV)     | Rayleigh        | Compton         | Photoelectric   | TOTAL (+pair prod) (cm) | Rayleigh: max cumul prob F^2]
  5.0000000000E+03  4.6446079766E+00  2.2287061451E+01  6.3002890818E-02  6.1986826315E-02  3.4778001245E-01
  5.0050000000E+03  4.6501038979E+00  2.2272895452E+01  6.3192747750E-02  6.2171473213E-02  3.4804223793E-01
  5.0100000000E+03  4.6556008250E+00  2.2258752587E+01  6.3382985749E-02  6.2356479323E-02  3.4830415626E-01
  5.0150000000E+03  4.6611031999E+00  2.2244632798E+01  6.3573605196E-02  6.2541845755E-02  3.4856576811E-01
  5.0200000000E+03  4.6666092412E+00  2.2230536023E+01  6.3764606474E-02  6.2727572505E-02  3.4882707409E-01
  5.0250000000E+03  4.6721162956E+00  2.2216462201E+01  6.3955989963E-02  6.2913659407E-02  3.4908807486E-01
  5.0300000000E+03  4.6776243621E+00  2.2202411272E+01  6.4147756044E-02  6.3100106768E-02  3.4934877103E-01
  5.0350000000E+03  4.6831334401E+00  2.2188383178E+01  6.4339905099E-02  6.3286914898E-02  3.4960916325E-01
  5.0400000000E+03  4.6886435287E+00  2.2174377857E+01  6.4532437510E-02  6.3474084105E-02  3.4986925215E-01
  5.0450000000E+03  4.6941546270E+00  2.2160395250E+01  6.4725353657E-02  6.3661614697E-02  3.5012903834E-01
  5.0500000000E+03  4.6996667344E+00  2.2146435298E+01  6.4918653921E-02  6.3849506982E-02  3.5038852245E-01
  5.0550000000E+03  4.7051798498E+00  2.2132497943E+01  6.5112338685E-02  6.4037761269E-02  3.5064770512E-01
  5.0600000000E+03  4.7106944991E+00  2.2118583124E+01  6.5306408329E-02  6.4226377963E-02  3.5090658696E-01
  5.0650000000E+03  4.7162111342E+00  2.2104690784E+01  6.5500863235E-02  6.4415357458E-02  3.5116516858E-01
  5.0700000000E+03  4.7217287769E+00  2.2090820864E+01  6.5695703784E-02  6.4604699878E-02  3.5142345061E-01
  5.0750000000E+03  4.7272474266E+00  2.2076973305E+01  6.5890930357E-02  6.4794405532E-02  3.5168143367E-01
  5.0800000000E+03  4.7327670824E+00  2.2063148050E+01  6.6086543336E-02  6.4984474727E-02  3.5193911836E-01
  5.0850000000E+03  4.7382877436E+00  2.2049582925E+01  6.6282543102E-02  6.5174909848E-02  3.5219650530E-01
  5.0900000000E+03  4.7438094093E+00  2.2036062524E+01  6.6478930036E-02  6.5365709352E-02  3.5245359509E-01
  5.0950000000E+03  4.7493320786E+00  2.2022563676E+01  6.6675704519E-02  6.5556873343E-02  3.5271038835E-01
  5.1000000000E+03  4.7548557509E+00  2.2009086326E+01  6.6872866933E-02  6.5748402129E-02  3.5296688568E-01
  5.1050000000E+03  4.7603804253E+00  2.1995630419E+01  6.7070417658E-02  6.5940296016E-02  3.5322308768E-01
  5.1100000000E+03  4.7659067823E+00  2.1982195898E+01  6.7268357077E-02  6.6132555442E-02  3.5347899496E-01
  5.1150000000E+03  4.7714341476E+00  2.1968782710E+01  6.7466685571E-02  6.6325180583E-02  3.5373460812E-01
  5.1200000000E+03  4.7769625135E+00  2.1955390800E+01  6.7665403520E-02  6.6518171744E-02  3.5398992775E-01
  5.1250000000E+03  4.7824918792E+00  2.1942020113E+01  6.7864511306E-02  6.6711529231E-02  3.5424495445E-01
  5.1300000000E+03  4.7880222440E+00  2.1928670595E+01  6.8064009310E-02  6.6905253349E-02  3.5449968881E-01
  5.1350000000E+03  4.7935536071E+00  2.1915342192E+01  6.8263897914E-02  6.7099344403E-02  3.5475413144E-01
  5.1400000000E+03  4.7990859676E+00  2.1902034850E+01  6.8464177498E-02  6.7293802698E-02  3.5500828291E-01
  5.1450000000E+03  4.8046193247E+00  2.1888748515E+01  6.8664848444E-02  6.7488628539E-02  3.5526214382E-01
  5.1500000000E+03  4.8101536778E+00  2.1875483134E+01  6.8865911133E-02  6.7683822231E-02  3.5551571475E-01
  5.1550000000E+03  4.8156902699E+00  2.1862238653E+01  6.9067365946E-02  6.7879384326E-02  3.5576899629E-01
  5.1600000000E+03  4.8212289097E+00  2.1849015020E+01  6.9269213265E-02  6.8075315092E-02  3.5602198907E-01
  5.1650000000E+03  4.8267685462E+00  2.1835952044E+01  6.9471453471E-02  6.8271615992E-02  3.5627469392E-01
  5.1700000000E+03  4.8323091784E+00  2.1823022036E+01  6.9674086945E-02  6.8468287088E-02  3.5652711158E-01
  5.1750000000E+03  4.8378508057E+00  2.1810112173E+01  6.9877114068E-02  6.8665327588E-02  3.5677924273E-01
  5.1800000000E+03  4.8433934271E+00  2.1797222403E+01  7.0080535221E-02  6.8862737796E-02  3.5703108806E-01
  5.1850000000E+03  4.8489370420E+00  2.1784352676E+01  7.0284350786E-02  6.9060518016E-02  3.5728264825E-01
  5.1900000000E+03  4.8544816495E+00  2.1771502941E+01  7.0488561144E-02  6.9258668551E-02  3.5753392399E-01
  5.1950000000E+03  4.8600272489E+00  2.1758673148E+01  7.0693166675E-02  6.9457189704E-02  3.5778491596E-01
  5.2000000000E+03  4.8655738566E+00  2.1745863247E+01  7.0898167762E-02  6.9656081782E-02  3.5803562483E-01
  5.2050000000E+03  4.8711235921E+00  2.1733073188E+01  7.1103564785E-02  6.9855345523E-02  3.5828605128E-01
  5.2100000000E+03  4.8766743199E+00  2.1720302921E+01  7.1309358125E-02  7.0054980795E-02  3.5853619598E-01
  5.2150000000E+03  4.8822260393E+00  2.1707552396E+01  7.1515548164E-02  7.0254987900E-02  3.5878605961E-01
  5.2200000000E+03  4.8877787495E+00  2.1694821565E+01  7.1722135283E-02  7.0455367140E-02  3.5903564281E-01
  5.2250000000E+03  4.8933324499E+00  2.1682110378E+01  7.1929119863E-02  7.0656118818E-02  3.5928494628E-01
  5.2300000000E+03  4.8988871395E+00  2.1669418786E+01  7.2136502285E-02  7.0857243234E-02  3.5953397065E-01
  5.2350000000E+03  4.9044428176E+00  2.1656746740E+01  7.2344282931E-02  7.1058740691E-02  3.5978271660E-01
  5.2400000000E+03  4.9099994835E+00  2.1644094191E+01  7.2552462181E-02  7.1260611491E-02  3.6003118478E-01
  5.2450000000E+03  4.9155571363E+00  2.1631461091E+01  7.2761040416E-02  7.1462855934E-02  3.6027937585E-01
  5.2500000000E+03  4.9211177327E+00  2.1619075176E+01  7.2970018018E-02  7.1665477240E-02  3.6052729046E-01
  5.2550000000E+03  4.9266824324E+00  2.1606724500E+01  7.3179395369E-02  7.1868473669E-02  3.6077492925E-01
  5.2600000000E+03  4.9322481234E+00  2.1594392615E+01  7.3389172848E-02  7.2071844683E-02  3.6102229288E-01
  5.2650000000E+03  4.9378148050E+00  2.1582079475E+01  7.3599350837E-02  7.2275590586E-02  3.6126938200E-01
  5.2700000000E+03  4.9433824764E+00  2.1569785034E+01  7.3809929718E-02  7.2479711676E-02  3.6151619724E-01
  5.2750000000E+03  4.9489511367E+00  2.1557509246E+01  7.4020909871E-02  7.2684208254E-02  3.6176273925E-01
  5.2800000000E+03  4.9545207854E+00  2.1545252064E+01  7.4232291677E-02  7.2889080622E-02  3.6200900866E-01
  5.2850000000E+03  4.9600914216E+00  2.1533013444E+01  7.4444075518E-02  7.3094329078E-02  3.6225500611E-01
  5.2900000000E+03  4.9656630445E+00  2.1520793339E+01  7.4656261775E-02  7.3299953922E-02  3.6250073224E-01
  5.2950000000E+03  4.9712356533E+00  2.1508591704E+01  7.4868850829E-02  7.3505955455E-02  3.6274618767E-01
  5.3000000000E+03  4.9768093905E+00  2.1496408493E+01  7.5081843061E-02  7.3712334007E-02  3.6299137304E-01
  5.3050000000E+03  4.9823841815E+00  2.1484243662E+01  7.5295238851E-02  7.3919089862E-02  3.6323628897E-01
  5.3100000000E+03  4.9879599564E+00  2.1472097165E+01  7.5509038582E-02  7.4126223303E-02  3.6348093609E-01
  5.3150000000E+03  4.9935367147E+00  2.1459968957E+01  7.5723242635E-02  7.4333734630E-02  3.6372531502E-01
  5.3200000000E+03  4.9991144554E+00  2.1447858995E+01  7.5937851389E-02  7.4541624141E-02  3.6396942637E-01
  5.3250000000E+03  5.0046931778E+00  2.1435767233E+01  7.6152865227E-02  7.4749892134E-02  3.6421327078E-01
  5.3300000000E+03  5.0102728813E+00  2.1423704113E+01  7.6368284529E-02  7.4958539037E-02  3.6445684884E-01
  5.3350000000E+03  5.0158535649E+00  2.1411884806E+01  7.6584109677E-02  7.5167567803E-02  3.6470016119E-01
  5.3400000000E+03  5.0214352281E+00  2.1400083083E+01  7.6800341052E-02  7.5376975978E-02  3.6494320842E-01
  5.3450000000E+03  5.0270178700E+00  2.1388298900E+01  7.7016979034E-02  7.5586763862E-02  3.6518599115E-01
  5.3500000000E+03  5.0325999844E+00  2.1376532216E+01  7.7234024005E-02  7.5796931410E-02  3.6542850998E-01
  5.3550000000E+03  5.0381828529E+00  2.1364782988E+01  7.7451476346E-02  7.6007479208E-02  3.6567076553E-01
  5.3600000000E+03  5.0437666957E+00  2.1353051173E+01  7.7669336438E-02  7.6218407605E-02  3.6591275838E-01
  5.3650000000E+03  5.0493515121E+00  2.1341336731E+01  7.7887604662E-02  7.6429716896E-02  3.6615448915E-01
  5.3700000000E+03  5.0549373013E+00  2.1329639619E+01  7.8106281398E-02  7.6641407379E-02  3.6639595843E-01
  5.3750000000E+03  5.0605240626E+00  2.1317959795E+01  7.8325367029E-02  7.6853479351E-02  3.6663716682E-01
  5.3800000000E+03  5.0661117953E+00  2.1306297217E+01  7.8544861934E-02  7.7065933108E-02  3.6687811490E-01
  5.3850000000E+03  5.0717004986E+00  2.1294651845E+01  7.8764766496E-02  7.7278768946E-02  3.6711880329E-01
  5.3900000000E+03  5.0772901718E+00  2.1283023637E+01  7.8985081095E-02  7.7491987163E-02  3.6735923255E-01
  5.3950000000E+03  5.0828808141E+00  2.1271412552E+01  7.9205806112E-02  7.7705588053E-02  3.6759940329E-01
  5.4000000000E+03  5.0884758703E+00  2.1259818548E+01  7.9426941928E-02  7.7919572722E-02  3.6783931609E-01
  5.4050000000E+03  5.0940719762E+00  2.1248241585E+01  7.9648488924E-02  7.8133940680E-02  3.6807897153E-01
  5.4100000000E+03  5.0996690534E+00  2.1236681622E+01  7.9870447481E-02  7.8348692205E-02  3.6831837020E-01
  5.4150000000E+03  5.1052671015E+00  2.1225138619E+01  8.0092817981E-02  7.8563827593E-02  3.6855751267E-01
  5.4200000000E+03  5.1108661195E+00  2.1213814582E+01  8.0315600804E-02  7.8779349925E-02  3.6879639952E-01
  5.4250000000E+03  5.1164661067E+00  2.1202533528E+01  8.0538796331E-02  7.8995257109E-02  3.6903503133E-01
  5.4300000000E+03  5.1220670625E+00  2.1191268857E+01  8.0762404943E-02  7.9211549075E-02  3.6927340867E-01
  5.4350000000E+03  5.1276689862E+00  2.1180020531E+01  8.0986427021E-02  7.9428226118E-02  3.6951153211E-01
  5.4400000000E+03  5.1332718769E+00  2.1168788510E+01  8.1210862946E-02  7.9645288532E-02  3.6974940223E-01
  5.4450000000E+03  5.1388757340E+00  2.1157572757E+01  8.1435713100E-02  7.9862736613E-02  3.6998701959E-01
  5.4500000000E+03  5.1446911380E+00  2.1146373232E+01  8.1660977862E-02  8.0080621677E-02  3.7022438476E-01
  5.4550000000E+03  5.1505090531E+00  2.1135189897E+01  8.1886657615E-02  8.0298893701E-02  3.7046149830E-01
  5.4600000000E+03  5.1563282082E+00  2.1124022715E+01  8.2112752738E-02  8.0517552673E-02  3.7069836078E-01
  5.4650000000E+03  5.1621486025E+00  2.1112871646E+01  8.2339263614E-02  8.0736598888E-02  3.7093497275E-01
  5.4700000000E+03  5.1679702350E+00  2.1101736653E+01  8.2566190623E-02  8.0956032641E-02  3.7117133477E-01
  5.4750000000E+03  5.1737931049E+00  2.1090617699E+01  8.2793534145E-02  8.1175854227E-02  3.7140744740E-01
  5.4800000000E+03  5.1796172113E+00  2.1079514745E+01  8.3021294563E-02  8.1396063941E-02  3.7164331119E-01
  5.4850000000E+03  5.1854425534E+00  2.1068427754E+01  8.3249472256E-02  8.1616662077E-02  3.7187892670E-01
  5.4900000000E+03  5.1912691302E+00  2.1057356688E+01  8.3478067606E-02  8.1837648929E-02  3.7211429448E-01
  5.4950000000E+03  5.1970969410E+00  2.1046301511E+01  8.3707080994E-02  8.2059024792E-02  3.7234941507E-01
  5.5000000000E+03  5.2029359374E+00  2.1035262184E+01  8.3936512800E-02  8.2280792449E-02  3.7258428902E-01
  5.5050000000E+03  5.2087770690E+00  2.1024337498E+01  8.4167558995E-02  8.2504100265E-02  3.7281891689E-01
  5.5100000000E+03  5.2146194463E+00  2.1013550429E+01  8.4399029897E-02  8.2727805035E-02  3.7305329920E-01
  5.5150000000E+03  5.2204630685E+00  2.1002778672E+01  8.4630925900E-02  8.2951905192E-02  3.7328743651E-01
  5.5200000000E+03  5.2263079348E+00  2.0992022190E+01  8.4863247395E-02  8.3176401038E-02  3.7352132954E-01
  5.5250000000E+03  5.2321540443E+00  2.0981280949E+01  8.5095994774E-02  8.3401292876E-02  3.7375497896E-01
  5.5300000000E+03  5.2380013962E+00  2.0970554912E+01  8.5329168431E-02  8.3626581008E-02  3.7398838541E-01
  5.5350000000E+03  5.2438499895E+00  2.0959844045E+01  8.5562768756E-02  8.3852265737E-02  3.7422154955E-01
  5.5400000000E+03  5.2496998234E+00  2.0949148313E+01  8.5796796144E-02  8.4078347364E-02  3.7445447200E-01
  5.5450000000E+03  5.2555508971E+00  2.0938467680E+01  8.6031250985E-02  8.4304826191E-02  3.7468715341E-01
  5.5500000000E+03  5.2614026958E+00  2.0927802111E+01  8.6266133672E-02  8.4531702388E-02  3.7491959440E-01
  5.5550000000E+03  5.2672555585E+00  2.0917151572E+01  8.6501444597E-02  8.4758976342E-02  3.7515179562E-01
  5.5600000000E+03  5.2731096575E+00  2.0906516028E+01  8.6737184154E-02  8.4986648399E-02  3.7538375768E-01
  5.5650000000E+03  5.2789649920E+00  2.0895895445E+01  8.6973352733E-02  8.5214718860E-02  3.7561548123E-01
  5.5700000000E+03  5.2848215610E+00  2.0885289788E+01  8.7209950728E-02  8.5443188027E-02  3.7584696687E-01
  5.5750000000E+03  5.2906793638E+00  2.0874699023E+01  8.7446978530E-02  8.5672056199E-02  3.7607821524E-01
  5.5800000000E+03  5.2965383995E+00  2.0864123115E+01  8.7684436532E-02  8.5901323676E-02  3.7630922695E-01
  5.5850000000E+03  5.3023986673E+00  2.0853562030E+01  8.7922325127E-02  8.6130990760E-02  3.7654000262E-01
  5.5900000000E+03  5.3082601662E+00  2.0843015735E+01  8.8160644706E-02  8.6361057751E-02  3.7677054286E-01
  5.5950000000E+03  5.3141228956E+00  2.0832639186E+01  8.8399395662E-02  8.6591527625E-02  3.7700084829E-01
  5.6000000000E+03  5.3199873263E+00  2.0822334390E+01  8.8638578387E-02  8.6822399155E-02  3.7723091952E-01
  5.6050000000E+03  5.3258534898E+00  2.0812043880E+01  8.8878193274E-02  8.7053671666E-02  3.7746075715E-01
  5.6100000000E+03  5.3317208824E+00  2.0801767625E+01  8.9118240715E-02  8.7285345324E-02  3.7769036180E-01
  5.6150000000E+03  5.3375895033E+00  2.0791505592E+01  8.9358721102E-02  8.7517420426E-02  3.7791973406E-01
  5.6200000000E+03  5.3434593517E+00  2.0781257749E+01  8.9599634827E-02  8.7749897274E-02  3.7814887453E-01
  5.6250000000E+03  5.3493304266E+00  2.0771024063E+01  8.9840982283E-02  8.7982776164E-02  3.7837778382E-01
  5.6300000000E+03  5.3552027273E+00  2.0760804503E+01  9.0082763863E-02  8.8216057397E-02  3.7860646252E-01
  5.6350000000E+03  5.3610762530E+00  2.0750599036E+01  9.0324979957E-02  8.8449741270E-02  3.7883491123E-01
  5.6400000000E+03  5.3669510028E+00  2.0740407630E+01  9.0567630960E-02  8.8683828082E-02  3.7906313053E-01
  5.6450000000E+03  5.3728269758E+00  2.0730230254E+01  9.0810717263E-02  8.8918318131E-02  3.7929112102E-01
  5.6500000000E+03  5.3787043697E+00  2.0720066876E+01  9.1054239258E-02  8.9153211769E-02  3.7951888328E-01
  5.6550000000E+03  5.3845843622E+00  2.0709917465E+01  9.1298197339E-02  8.9388509619E-02  3.7974641790E-01
  5.6600000000E+03  5.3904655775E+00  2.0699781988E+01  9.1542591896E-02  8.9624211602E-02  3.7997372546E-01
  5.6650000000E+03  5.3963480148E+00  2.0689660415E+01  9.1787423323E-02  8.9860318016E-02  3.8020080655E-01
  5.6700000000E+03  5.4022316734E+00  2.0679552714E+01  9.2032692012E-02  9.0096829156E-02  3.8042766174E-01
  5.6750000000E+03  5.4081165523E+00  2.0669458853E+01  9.2278398355E-02  9.0333745321E-02  3.8065429161E-01
  5.6800000000E+03  5.4140026507E+00  2.0659378803E+01  9.2524542745E-02  9.0571066806E-02  3.8088069674E-01
  5.6850000000E+03  5.4198899679E+00  2.0649460802E+01  9.2771125573E-02  9.0808796776E-02  3.8110687769E-01
  5.6900000000E+03  5.4257785030E+00  2.0639611848E+01  9.3018147233E-02  9.1046933771E-02  3.8133283504E-01
  5.6950000000E+03  5.4316682551E+00  2.0629776237E+01  9.3265608116E-02  9.1285477018E-02  3.8155856936E-01
  5.7000000000E+03  5.4375592236E+00  2.0619953937E+01  9.3513508616E-02  9.1524426811E-02  3.8178408120E-01
  5.7050000000E+03  5.4434515711E+00  2.0610144921E+01  9.3761849123E-02  9.1763783495E-02  3.8200937115E-01
  5.7100000000E+03  5.4493452135E+00  2.0600349158E+01  9.4010630032E-02  9.2003547341E-02  3.8223443975E-01
  5.7150000000E+03  5.4552400700E+00  2.0590566618E+01  9.4259851733E-02  9.2243718621E-02  3.8245928756E-01
  5.7200000000E+03  5.4611361399E+00  2.0580797273E+01  9.4509514620E-02  9.2484297632E-02  3.8268391516E-01
  5.7250000000E+03  5.4670334222E+00  2.0571041092E+01  9.4759619085E-02  9.2725284668E-02  3.8290832308E-01
  5.7300000000E+03  5.4729319163E+00  2.0561298048E+01  9.5010165519E-02  9.2966680024E-02  3.8313251190E-01
  5.7350000000E+03  5.4788316212E+00  2.0551568110E+01  9.5261154317E-02  9.3208483995E-02  3.8335648214E-01
  5.7400000000E+03  5.4847325363E+00  2.0541851250E+01  9.5512585869E-02  9.3450696875E-02  3.8358023438E-01
  5.7450000000E+03  5.4906346606E+00  2.0532147438E+01  9.5764460568E-02  9.3693318958E-02  3.8380376915E-01
  5.7500000000E+03  5.4965379934E+00  2.0522456646E+01  9.6016778807E-02  9.3936350539E-02  3.8402708701E-01
  5.7550000000E+03  5.5024428322E+00  2.0512778845E+01  9.6269540978E-02  9.4179791998E-02  3.8425018849E-01
  5.7600000000E+03  5.5083510674E+00  2.0503114007E+01  9.6522747474E-02  9.4423644186E-02  3.8447307414E-01
  5.7650000000E+03  5.5142605118E+00  2.0493462102E+01  9.6776398686E-02  9.4667906757E-02  3.8469574449E-01
  5.7700000000E+03  5.5201711647E+00  2.0483823102E+01  9.7030495007E-02  9.4912580005E-02  3.8491820009E-01
  5.7750000000E+03  5.5260830252E+00  2.0474282101E+01  9.7285036830E-02  9.5157666061E-02  3.8514044147E-01
  5.7800000000E+03  5.5319960925E+00  2.0464864368E+01  9.7540024547E-02  9.5403165801E-02  3.8536246917E-01
  5.7850000000E+03  5.5379103660E+00  2.0455459106E+01  9.7795458550E-02  9.5649077141E-02  3.8558428372E-01
  5.7900000000E+03  5.5438258446E+00  2.0446066285E+01  9.8051339231E-02  9.5895400373E-02  3.8580588565E-01
  5.7950000000E+03  5.5497425277E+00  2.0436685880E+01  9.8307666984E-02  9.6142135788E-02  3.8602727548E-01
  5.8000000000E+03  5.5556604145E+00  2.0427317863E+01  9.8564442200E-02  9.6389283680E-02  3.8624845375E-01
  5.8050000000E+03  5.5615795041E+00  2.0417962207E+01  9.8821665272E-02  9.6636844341E-02  3.8646942098E-01
  5.8100000000E+03  5.5675014539E+00  2.0408618885E+01  9.9079336592E-02  9.6884818563E-02  3.8669017769E-01
  5.8150000000E+03  5.5734264629E+00  2.0399287870E+01  9.9337456553E-02  9.7133206705E-02  3.8691072441E-01
  5.8200000000E+03  5.5793526769E+00  2.0389969136E+01  9.9596025547E-02  9.7382008498E-02  3.8713106165E-01
  5.8250000000E+03  5.5852800951E+00  2.0380662656E+01  9.9855043966E-02  9.7631224233E-02  3.8735118993E-01
  5.8300000000E+03  5.5912087166E+00  2.0371368403E+01  1.0011451220E-01  9.7880854200E-02  3.8757110976E-01
  5.8350000000E+03  5.5971385407E+00  2.0362086350E+01  1.0037443065E-01  9.8130898692E-02  3.8779082167E-01
  5.8400000000E+03  5.6030695666E+00  2.0352816472E+01  1.0063479970E-01  9.8381357998E-02  3.8801032616E-01
  5.8450000000E+03  5.6090017935E+00  2.0343558742E+01  1.0089561975E-01  9.8632232408E-02  3.8822962374E-01
  5.8500000000E+03  5.6149352206E+00  2.0334313133E+01  1.0115689118E-01  9.8883522214E-02  3.8844871491E-01
  5.8550000000E+03  5.6208698471E+00  2.0325079620E+01  1.0141861439E-01  9.9135227704E-02  3.8866760013E-01
  5.8600000000E+03  5.6268056723E+00  2.0315858175E+01  1.0168078977E-01  9.9387349168E-02  3.8888627994E-01
  5.8650000000E+03  5.6327431247E+00  2.0306648774E+01  1.0194341772E-01  9.9639887031E-02  3.8910475491E-01
  5.8700000000E+03  5.6386819385E+00  2.0297610678E+01  1.0220649863E-01  9.9892845357E-02  3.8932302562E-01
  5.8750000000E+03  5.6446219494E+00  2.0288612862E+01  1.0247003288E-01  1.0014622126E-01  3.8954109264E-01
  5.8800000000E+03  5.6505631565E+00  2.0279626683E+01  1.0273402088E-01  1.0040001435E-01  3.8975895654E-01
  5.8850000000E+03  5.6565055592E+00  2.0270652118E+01  1.0299846301E-01  1.0065422490E-01  3.8997661787E-01
  5.8900000000E+03  5.6624491566E+00  2.0261689141E+01  1.0326335967E-01  1.0090885321E-01  3.9019407721E-01
  5.8950000000E+03  5.6683939479E+00  2.0252737727E+01  1.0352871125E-01  1.0116389956E-01  3.9041133511E-01
  5.9000000000E+03  5.6743399324E+00  2.0243797852E+01  1.0379451814E-01  1.0141936425E-01  3.9062839213E-01
  5.9050000000E+03  5.6802871093E+00  2.0234869492E+01  1.0406078073E-01  1.0167524756E-01  3.9084524884E-01
  5.9100000000E+03  5.6862354779E+00  2.0225952621E+01  1.0432749942E-01  1.0193154977E-01  3.9106190577E-01
  5.9150000000E+03  5.6921850373E+00  2.0217047215E+01  1.0459467460E-01  1.0218827119E-01  3.9127836349E-01
  5.9200000000E+03  5.6981407872E+00  2.0208153249E+01  1.0486230666E-01  1.0244541371E-01  3.9149462255E-01
  5.9250000000E+03  5.7040984409E+00  2.0199270700E+01  1.0513039599E-01  1.0270297623E-01  3.9171068349E-01
  5.9300000000E+03  5.7100572902E+00  2.0190399543E+01  1.0539894299E-01  1.0296095883E-01  3.9192654686E-01
  5.9350000000E+03  5.7160173345E+00  2.0181539754E+01  1.0566794805E-01  1.0321936179E-01  3.9214221321E-01
  5.9400000000E+03  5.7219785729E+00  2.0172691309E+01  1.0593741156E-01  1.0347818540E-01  3.9235768307E-01
  5.9450000000E+03  5.7279410047E+00  2.0163854184E+01  1.0620733391E-01  1.0373742993E-01  3.9257295700E-01
  5.9500000000E+03  5.7339046290E+00  2.0155028354E+01  1.0647771550E-01  1.0399709569E-01  3.9278803551E-01
  5.9550000000E+03  5.7398694453E+00  2.0146213796E+01  1.0674855672E-01  1.0425718294E-01  3.9300291916E-01
  5.9600000000E+03  5.7458354525E+00  2.0137410485E+01  1.0701985795E-01  1.0451769199E-01  3.9321760848E-01
  5.9650000000E+03  5.7518026501E+00  2.0128791785E+01  1.0729161961E-01  1.0477862781E-01  3.9343210399E-01
  5.9700000000E+03  5.7577710373E+00  2.0120190895E+01  1.0756384206E-01  1.0503998622E-01  3.9364640624E-01
  5.9750000000E+03  5.7637387387E+00  2.0111600875E+01  1.0783652572E-01  1.0530176671E-01  3.9386051574E-01
  5.9800000000E+03  5.7697074846E+00  2.0103021704E+01  1.0810967096E-01  1.0556397012E-01  3.9407443303E-01
  5.9850000000E+03  5.7756774154E+00  2.0094453359E+01  1.0838327819E-01  1.0582659679E-01  3.9428815862E-01
  5.9900000000E+03  5.7816485302E+00  2.0085895816E+01  1.0865734779E-01  1.0608964701E-01  3.9450169305E-01
  5.9950000000E+03  5.7876208283E+00  2.0077349052E+01  1.0893188016E-01  1.0635312105E-01  3.9471503683E-01
  6.0000000000E+03  5.7935943088E+00  2.0068813047E+01  1.0920687569E-01  1.0661701921E-01  3.9492819048E-01
  6.0050000000E+03  5.7995689712E+00  2.0060287776E+01  1.0948427863E-01  1.0688319435E-01  3.9514115452E-01
  6.0100000000E+03  5.8055448146E+00  2.0051773218E+01  1.0976215380E-01  1.0714980175E-01  3.9535392947E-01
  6.0150000000E+03  5.8115218383E+00  2.0043269350E+01  1.1004050159E-01  1.0741684169E-01  3.9556651583E-01
  6.0200000000E+03  5.8175000415E+00  2.0034776150E+01  1.1031932243E-01  1.0768431448E-01  3.9577891412E-01
  6.0250000000E+03  5.8234794235E+00  2.0026293596E+01  1.1059861672E-01  1.0795222040E-01  3.9599112485E-01
  6.0300000000E+03  5.8294830667E+00  2.0017821665E+01  1.1087838487E-01  1.0822056771E-01  3.9620314853E-01
  6.0350000000E+03  5.8354910652E+00  2.0009360336E+01  1.1115862728E-01  1.0848934989E-01  3.9641498566E-01
  6.0400000000E+03  5.8415002724E+00  2.0000909586E+01  1.1143934436E-01  1.0875856616E-01  3.9662663675E-01
  6.0450000000E+03  5.8475106876E+00  1.9992469393E+01  1.1172053653E-01  1.0902821681E-01  3.9683810230E-01
  6.0500000000E+03  5.8535223100E+00  1.9984039736E+01  1.1200220419E-01  1.0929830214E-01  3.9704938281E-01
  6.0550000000E+03  5.8595351388E+00  1.9975620593E+01  1.1228434774E-01  1.0956882243E-01  3.9726047877E-01
  6.0600000000E+03  5.8655491734E+00  1.9967345208E+01  1.1256696761E-01  1.0983978203E-01  3.9747139070E-01
  6.0650000000E+03  5.8715644128E+00  1.9959119516E+01  1.1285006418E-01  1.1011117843E-01  3.9768211908E-01
  6.0700000000E+03  5.8775808565E+00  1.9950903987E+01  1.1313363789E-01  1.1038301073E-01  3.9789266440E-01
  6.0750000000E+03  5.8835985036E+00  1.9942698600E+01  1.1341768912E-01  1.1065527923E-01  3.9810302717E-01
  6.0800000000E+03  5.8896173534E+00  1.9934503334E+01  1.1370221830E-01  1.1092798422E-01  3.9831320786E-01
  6.0850000000E+03  5.8957563231E+00  1.9926318168E+01  1.1398722582E-01  1.1120116830E-01  3.9852320697E-01
  6.0900000000E+03  5.9019406533E+00  1.9918143082E+01  1.1427271210E-01  1.1147480546E-01  3.9873302498E-01
  6.0950000000E+03  5.9081263871E+00  1.9909978055E+01  1.1455867754E-01  1.1174888040E-01  3.9894266238E-01
  6.1000000000E+03  5.9143135238E+00  1.9901823067E+01  1.1484512256E-01  1.1202339340E-01  3.9915211966E-01
  6.1050000000E+03  5.9205020625E+00  1.9893678096E+01  1.1513204756E-01  1.1229834478E-01  3.9936139729E-01
  6.1100000000E+03  5.9266920024E+00  1.9885543123E+01  1.1541945295E-01  1.1257373481E-01  3.9957049576E-01
  6.1150000000E+03  5.9328833427E+00  1.9877418126E+01  1.1570733914E-01  1.1284956379E-01  3.9977941554E-01
  6.1200000000E+03  5.9390760824E+00  1.9869303086E+01  1.1599570654E-01  1.1312583202E-01  3.9998815711E-01
  6.1250000000E+03  5.9452702209E+00  1.9861197982E+01  1.1628455555E-01  1.1340253979E-01  4.0019672094E-01
  6.1300000000E+03  5.9514657572E+00  1.9853102794E+01  1.1657388659E-01  1.1367968739E-01  4.0040510752E-01
  6.1350000000E+03  5.9576626906E+00  1.9845017502E+01  1.1686370005E-01  1.1395727512E-01  4.0061331731E-01
  6.1400000000E+03  5.9638613625E+00  1.9836942085E+01  1.1715399636E-01  1.1423530339E-01  4.0082135078E-01
  6.1450000000E+03  5.9700618072E+00  1.9828876524E+01  1.1744477592E-01  1.1451377251E-01  4.0102920840E-01
  6.1500000000E+03  5.9762636475E+00  1.9820820798E+01  1.1773603914E-01  1.1479268263E-01  4.0123689063E-01
  6.1550000000E+03  5.9824668823E+00  1.9812819899E+01  1.1802778642E-01  1.1507203557E-01  4.0144439796E-01
  6.1600000000E+03  5.9886715111E+00  1.9804948892E+01  1.1832001817E-01  1.1535183418E-01  4.0165173082E-01
  6.1650000000E+03  5.9948775328E+00  1.9797087393E+01  1.1861273481E-01  1.1563207473E-01  4.0185888971E-01
  6.1700000000E+03  6.0010849468E+00  1.9789235385E+01  1.1890593674E-01  1.1591275751E-01  4.0206587520E-01
  6.1750000000E+03  6.0072937522E+00  1.9781392848E+01  1.1919962437E-01  1.1619388280E-01  4.0227268789E-01
  6.1800000000E+03  6.0135039481E+00  1.9773559763E+01  1.1949379811E-01  1.1647545089E-01  4.0247932827E-01
  6.1850000000E+03  6.0197155338E+00  1.9765736110E+01  1.1978845837E-01  1.1675746209E-01  4.0268579685E-01
  6.1900000000E+03  6.0259285085E+00  1.9757921872E+01  1.2008360555E-01  1.1703991667E-01  4.0289209413E-01
  6.1950000000E+03  6.0321429700E+00  1.9750117028E+01  1.2037924006E-01  1.1732281497E-01  4.0309822060E-01
  6.2000000000E+03  6.0383595576E+00  1.9742321561E+01  1.2067536232E-01  1.1760615752E-01  4.0330417677E-01
  6.2050000000E+03  6.0445775327E+00  1.9734535451E+01  1.2097197273E-01  1.1788994434E-01  4.0350996312E-01
  6.2100000000E+03  6.0507968946E+00  1.9726758680E+01  1.2126907170E-01  1.1817417570E-01  4.0371558016E-01
  6.2150000000E+03  6.0570176424E+00  1.9718991228E+01  1.2156665963E-01  1.1845885190E-01  4.0392102836E-01
  6.2200000000E+03  6.0632397753E+00  1.9711233078E+01  1.2186473695E-01  1.1874397323E-01  4.0412630823E-01
  6.2250000000E+03  6.0694632927E+00  1.9703484210E+01  1.2216330404E-01  1.1902953999E-01  4.0433142025E-01
  6.2300000000E+03  6.0756881935E+00  1.9695744606E+01  1.2246236134E-01  1.1931555245E-01  4.0453636491E-01
  6.2350000000E+03  6.0819144771E+00  1.9688014248E+01  1.2276190923E-01  1.1960201090E-01  4.0474114269E-01
  6.2400000000E+03  6.0881421426E+00  1.9680293117E+01  1.2306194814E-01  1.1988891564E-01  4.0494575407E-01
  6.2450000000E+03  6.0943711892E+00  1.9672581195E+01  1.2336247846E-01  1.2017626695E-01  4.0515019954E-01
  6.2500000000E+03  6.1006016162E+00  1.9664878463E+01  1.2366350061E-01  1.2046406513E-01  4.0535447958E-01
  6.2550000000E+03  6.1068334659E+00  1.9657257471E+01  1.2396501500E-01  1.2075231320E-01  4.0555859466E-01
  6.2600000000E+03  6.1130667171E+00  1.9649730879E+01  1.2426702204E-01  1.2104101199E-01  4.0576254525E-01
  6.2650000000E+03  6.1193013464E+00  1.9642213175E+01  1.2456952213E-01  1.2133015856E-01  4.0596633185E-01
  6.2700000000E+03  6.1255373529E+00  1.9634704341E+01  1.2487251568E-01  1.2161975319E-01  4.0616995490E-01
  6.2750000000E+03  6.1317747359E+00  1.9627204360E+01  1.2517600311E-01  1.2190979618E-01  4.0637341490E-01
  6.2800000000E+03  6.1380134945E+00  1.9619713214E+01  1.2547998481E-01  1.2220028781E-01  4.0657671231E-01
  6.2850000000E+03  6.1442536279E+00  1.9612230886E+01  1.2578446121E-01  1.2249122836E-01  4.0677984759E-01
  6.2900000000E+03  6.1504951354E+00  1.9604757357E+01  1.2608943270E-01  1.2278261814E-01  4.0698282122E-01
  6.2950000000E+03  6.1567380161E+00  1.9597292612E+01  1.2639489970E-01  1.2307445741E-01  4.0718563365E-01
  6.3000000000E+03  6.1629822693E+00  1.9589836632E+01  1.2670086261E-01  1.2336674647E-01  4.0738828535E-01
  6.3050000000E+03  6.1692278942E+00  1.9582389401E+01  1.2700732185E-01  1.2365948560E-01  4.0759077679E-01
  6.3100000000E+03  6.1754747873E+00  1.9574950901E+01  1.2731427782E-01  1.2395267504E-01  4.0779310842E-01
  6.3150000000E+03  6.1817219577E+00  1.9567521115E+01  1.2762173093E-01  1.2424631469E-01  4.0799528070E-01
  6.3200000000E+03  6.1879704960E+00  1.9560100027E+01  1.2792968159E-01  1.2454040526E-01  4.0819729409E-01
  6.3250000000E+03  6.1942204013E+00  1.9552687618E+01  1.2823813021E-01  1.2483494704E-01  4.0839914905E-01
  6.3300000000E+03  6.2004716729E+00  1.9545283872E+01  1.2854707719E-01  1.2512994032E-01  4.0860084602E-01
  6.3350000000E+03  6.2067243101E+00  1.9537888772E+01  1.2885652296E-01  1.2542538537E-01  4.0880238547E-01
  6.3400000000E+03  6.2129783120E+00  1.9530502301E+01  1.2916646790E-01  1.2572128248E-01  4.0900376784E-01
  6.3450000000E+03  6.2192336778E+00  1.9523124442E+01  1.2947691245E-01  1.2601763194E-01  4.0920499358E-01
  6.3500000000E+03  6.2254904068E+00  1.9515755179E+01  1.2978785699E-01  1.2631443403E-01  4.0940606313E-01
