#[MATERIAL DEFINITION FOR MC-GPU: interaction mean free path and sampling data from PENELOPE 2018]
#[MATERIAL NAME]
# pancreas                                                      
#[NOMINAL DENSITY (g/cm^3)]
#   1.05000000
#[NUMBER OF DATA VALUES]
#  23002
#[MEAN FREE PATHS (cm) (ie, average distance between interactions)]
#[Energy (eV)     | Rayleigh        | Compton         | Photoelectric   | TOTAL (+pair prod) (cm) | Rayleigh: max cumul prob F^2]
  5.0000000000E+03  1.7531191305E+00  8.1189477266E+00  2.4470373495E-02  2.4061989193E-02  3.4838738030E-01
  5.0050000000E+03  1.7551973970E+00  8.1138143657E+00  2.4544327234E-02  2.4133839498E-02  3.4864892490E-01
  5.0100000000E+03  1.7572760484E+00  8.1086893713E+00  2.4618430087E-02  2.4205830043E-02  3.4891016627E-01
  5.0150000000E+03  1.7593563355E+00  8.1035727215E+00  2.4692682205E-02  2.4277961187E-02  3.4917110504E-01
  5.0200000000E+03  1.7614377566E+00  8.0984643942E+00  2.4767083740E-02  2.4350232958E-02  3.4943174188E-01
  5.0250000000E+03  1.7635195643E+00  8.0933643678E+00  2.4841634840E-02  2.4422645336E-02  3.4969207741E-01
  5.0300000000E+03  1.7656017584E+00  8.0882726205E+00  2.4916335658E-02  2.4495198441E-02  3.4995211228E-01
  5.0350000000E+03  1.7676843385E+00  8.0831891306E+00  2.4991186343E-02  2.4567892395E-02  3.5021184713E-01
  5.0400000000E+03  1.7697673044E+00  8.0781138766E+00  2.5066187048E-02  2.4640727317E-02  3.5047128259E-01
  5.0450000000E+03  1.7718506557E+00  8.0730468370E+00  2.5141337921E-02  2.4713703330E-02  3.5073041930E-01
  5.0500000000E+03  1.7739343921E+00  8.0679879903E+00  2.5216639114E-02  2.4786820554E-02  3.5098925789E-01
  5.0550000000E+03  1.7760185133E+00  8.0629373153E+00  2.5292090778E-02  2.4860079110E-02  3.5124779898E-01
  5.0600000000E+03  1.7781033219E+00  8.0578947906E+00  2.5367693064E-02  2.4933479177E-02  3.5150604322E-01
  5.0650000000E+03  1.7801890779E+00  8.0528603951E+00  2.5443446121E-02  2.5007020929E-02  3.5176399121E-01
  5.0700000000E+03  1.7822752190E+00  8.0478341077E+00  2.5519350102E-02  2.5080704375E-02  3.5202164358E-01
  5.0750000000E+03  1.7843617448E+00  8.0428159072E+00  2.5595405156E-02  2.5154529636E-02  3.5227900097E-01
  5.0800000000E+03  1.7864486551E+00  8.0378057729E+00  2.5671611434E-02  2.5228496832E-02  3.5253606397E-01
  5.0850000000E+03  1.7885359495E+00  8.0328907954E+00  2.5747969087E-02  2.5302606949E-02  3.5279283322E-01
  5.0900000000E+03  1.7906236276E+00  8.0279920956E+00  2.5824478265E-02  2.5376859335E-02  3.5304930933E-01
  5.0950000000E+03  1.7927116893E+00  8.0231011885E+00  2.5901139120E-02  2.5451254029E-02  3.5330549291E-01
  5.1000000000E+03  1.7948001342E+00  8.0182180541E+00  2.5977951802E-02  2.5525791151E-02  3.5356138457E-01
  5.1050000000E+03  1.7968889620E+00  8.0133426724E+00  2.6054916462E-02  2.5600470819E-02  3.5381698493E-01
  5.1100000000E+03  1.7989785378E+00  8.0084750236E+00  2.6132033251E-02  2.5675293230E-02  3.5407229458E-01
  5.1150000000E+03  1.8010684999E+00  8.0036150878E+00  2.6209302318E-02  2.5750258429E-02  3.5432731414E-01
  5.1200000000E+03  1.8031588446E+00  7.9987628452E+00  2.6286723815E-02  2.5825366536E-02  3.5458204420E-01
  5.1250000000E+03  1.8052495714E+00  7.9939182762E+00  2.6364297893E-02  2.5900617670E-02  3.5483648538E-01
  5.1300000000E+03  1.8073406801E+00  7.9890813613E+00  2.6442024703E-02  2.5976011951E-02  3.5509063827E-01
  5.1350000000E+03  1.8094321704E+00  7.9842520808E+00  2.6519904394E-02  2.6051549498E-02  3.5534450346E-01
  5.1400000000E+03  1.8115240419E+00  7.9794304153E+00  2.6597937118E-02  2.6127230432E-02  3.5559808156E-01
  5.1450000000E+03  1.8136162944E+00  7.9746163454E+00  2.6676123025E-02  2.6203054871E-02  3.5585137315E-01
  5.1500000000E+03  1.8157089276E+00  7.9698098518E+00  2.6754462267E-02  2.6279022936E-02  3.5610437884E-01
  5.1550000000E+03  1.8178023522E+00  7.9650109152E+00  2.6832954993E-02  2.6355134830E-02  3.5635709920E-01
  5.1600000000E+03  1.8198965051E+00  7.9602195164E+00  2.6911601355E-02  2.6431390663E-02  3.5660953486E-01
  5.1650000000E+03  1.8219910387E+00  7.9554868105E+00  2.6990401504E-02  2.6507791047E-02  3.5686168660E-01
  5.1700000000E+03  1.8240859527E+00  7.9508026673E+00  2.7069355589E-02  2.6584336001E-02  3.5711355513E-01
  5.1750000000E+03  1.8261812470E+00  7.9461258060E+00  2.7148463762E-02  2.6661025189E-02  3.5736514116E-01
  5.1800000000E+03  1.8282769211E+00  7.9414562083E+00  2.7227726173E-02  2.6737858730E-02  3.5761644538E-01
  5.1850000000E+03  1.8303729748E+00  7.9367938559E+00  2.7307142974E-02  2.6814836744E-02  3.5786746846E-01
  5.1900000000E+03  1.8324694078E+00  7.9321387306E+00  2.7386714314E-02  2.6891959348E-02  3.5811821111E-01
  5.1950000000E+03  1.8345662198E+00  7.9274908143E+00  2.7466440345E-02  2.6969226661E-02  3.5836867400E-01
  5.2000000000E+03  1.8366634181E+00  7.9228500888E+00  2.7546321217E-02  2.7046638805E-02  3.5861885781E-01
  5.2050000000E+03  1.8387619440E+00  7.9182165362E+00  2.7626357082E-02  2.7124196102E-02  3.5886876323E-01
  5.2100000000E+03  1.8408608491E+00  7.9135901384E+00  2.7706548088E-02  2.7201898466E-02  3.5911839092E-01
  5.2150000000E+03  1.8429601334E+00  7.9089708777E+00  2.7786894389E-02  2.7279746016E-02  3.5936774158E-01
  5.2200000000E+03  1.8450597964E+00  7.9043587361E+00  2.7867396133E-02  2.7357738870E-02  3.5961681585E-01
  5.2250000000E+03  1.8471598379E+00  7.8997536958E+00  2.7948053472E-02  2.7435877146E-02  3.5986561442E-01
  5.2300000000E+03  1.8492602576E+00  7.8951557392E+00  2.8028866557E-02  2.7514160963E-02  3.6011413795E-01
  5.2350000000E+03  1.8513610552E+00  7.8905648486E+00  2.8109835537E-02  2.7592590439E-02  3.6036238710E-01
  5.2400000000E+03  1.8534622303E+00  7.8859810064E+00  2.8190960565E-02  2.7671165691E-02  3.6061036254E-01
  5.2450000000E+03  1.8555637828E+00  7.8814041951E+00  2.8272241791E-02  2.7749886838E-02  3.6085806492E-01
  5.2500000000E+03  1.8576667215E+00  7.8769176704E+00  2.8353679365E-02  2.7828755264E-02  3.6110549490E-01
  5.2550000000E+03  1.8597716445E+00  7.8724439497E+00  2.8435273437E-02  2.7907770272E-02  3.6135265314E-01
  5.2600000000E+03  1.8618769473E+00  7.8679770208E+00  2.8517024160E-02  2.7986931546E-02  3.6159954028E-01
  5.2650000000E+03  1.8639826298E+00  7.8635168671E+00  2.8598931683E-02  2.8066239203E-02  3.6184615697E-01
  5.2700000000E+03  1.8660886915E+00  7.8590634717E+00  2.8680996158E-02  2.8145693363E-02  3.6209250387E-01
  5.2750000000E+03  1.8681951322E+00  7.8546168181E+00  2.8763217734E-02  2.8225294142E-02  3.6233858161E-01
  5.2800000000E+03  1.8703019515E+00  7.8501768897E+00  2.8845596563E-02  2.8305041658E-02  3.6258439084E-01
  5.2850000000E+03  1.8724091493E+00  7.8457436700E+00  2.8928132796E-02  2.8384936028E-02  3.6282993219E-01
  5.2900000000E+03  1.8745167252E+00  7.8413171424E+00  2.9010826582E-02  2.8464977371E-02  3.6307520631E-01
  5.2950000000E+03  1.8766246789E+00  7.8368972906E+00  2.9093678073E-02  2.8545165803E-02  3.6332021383E-01
  5.3000000000E+03  1.8787330042E+00  7.8324840983E+00  2.9176687420E-02  2.8625501440E-02  3.6356495538E-01
  5.3050000000E+03  1.8808417038E+00  7.8280775490E+00  2.9259854773E-02  2.8705984400E-02  3.6380943159E-01
  5.3100000000E+03  1.8829507804E+00  7.8236776266E+00  2.9343180283E-02  2.8786614801E-02  3.6405364310E-01
  5.3150000000E+03  1.8850602337E+00  7.8192843149E+00  2.9426664100E-02  2.8867392760E-02  3.6429759051E-01
  5.3200000000E+03  1.8871700633E+00  7.8148975977E+00  2.9510306376E-02  2.8948318394E-02  3.6454127447E-01
  5.3250000000E+03  1.8892802690E+00  7.8105174590E+00  2.9594107261E-02  2.9029391820E-02  3.6478469559E-01
  5.3300000000E+03  1.8913908505E+00  7.8061477131E+00  2.9678066905E-02  2.9110613208E-02  3.6502785449E-01
  5.3350000000E+03  1.8935018075E+00  7.8018669534E+00  2.9762185460E-02  2.9191983776E-02  3.6527075178E-01
  5.3400000000E+03  1.8956131397E+00  7.7975925481E+00  2.9846463077E-02  2.9273502500E-02  3.6551338808E-01
  5.3450000000E+03  1.8977248469E+00  7.7933244816E+00  2.9930899905E-02  2.9355169496E-02  3.6575576401E-01
  5.3500000000E+03  1.8998366934E+00  7.7890627388E+00  3.0015496096E-02  2.9436984825E-02  3.6599788017E-01
  5.3550000000E+03  1.9019488793E+00  7.7848073042E+00  3.0100251800E-02  2.9518948650E-02  3.6623973717E-01
  5.3600000000E+03  1.9040614390E+00  7.7805581628E+00  3.0185167168E-02  2.9601061097E-02  3.6648133562E-01
  5.3650000000E+03  1.9061743722E+00  7.7763152993E+00  3.0270242351E-02  2.9683322281E-02  3.6672267612E-01
  5.3700000000E+03  1.9082876785E+00  7.7720786987E+00  3.0355477499E-02  2.9765732320E-02  3.6696375927E-01
  5.3750000000E+03  1.9104013577E+00  7.7678483458E+00  3.0440872764E-02  2.9848291329E-02  3.6720458567E-01
  5.3800000000E+03  1.9125154096E+00  7.7636242257E+00  3.0526428295E-02  2.9930999424E-02  3.6744515592E-01
  5.3850000000E+03  1.9146298338E+00  7.7594063234E+00  3.0612144245E-02  3.0013856721E-02  3.6768547061E-01
  5.3900000000E+03  1.9167446300E+00  7.7551946240E+00  3.0698020762E-02  3.0096863337E-02  3.6792553034E-01
  5.3950000000E+03  1.9188597980E+00  7.7509891126E+00  3.0784057998E-02  3.0180019387E-02  3.6816533569E-01
  5.4000000000E+03  1.9209758970E+00  7.7467897744E+00  3.0870256105E-02  3.0263325126E-02  3.6840488726E-01
  5.4050000000E+03  1.9230923805E+00  7.7425965946E+00  3.0956615231E-02  3.0346780535E-02  3.6864418563E-01
  5.4100000000E+03  1.9252092356E+00  7.7384095586E+00  3.1043135529E-02  3.0430385726E-02  3.6888323139E-01
  5.4150000000E+03  1.9273264622E+00  7.7342286516E+00  3.1129817149E-02  3.0514140815E-02  3.6912202512E-01
  5.4200000000E+03  1.9294440598E+00  7.7301275944E+00  3.1216660241E-02  3.0598047073E-02  3.6936056740E-01
  5.4250000000E+03  1.9315620283E+00  7.7260421641E+00  3.1303664957E-02  3.0682103626E-02  3.6959885881E-01
  5.4300000000E+03  1.9336803674E+00  7.7219626537E+00  3.1390831447E-02  3.0766310437E-02  3.6983689993E-01
  5.4350000000E+03  1.9357990767E+00  7.7178890491E+00  3.1478159861E-02  3.0850667623E-02  3.7007469132E-01
  5.4400000000E+03  1.9379181561E+00  7.7138213364E+00  3.1565650351E-02  3.0935175298E-02  3.7031223356E-01
  5.4450000000E+03  1.9400376051E+00  7.7097595016E+00  3.1653303067E-02  3.1019833578E-02  3.7054952723E-01
  5.4500000000E+03  1.9422348211E+00  7.7057035308E+00  3.1741118160E-02  3.1104662428E-02  3.7078657289E-01
  5.4550000000E+03  1.9444329749E+00  7.7016534102E+00  3.1829095781E-02  3.1189642389E-02  3.7102337110E-01
  5.4600000000E+03  1.9466315991E+00  7.6976091261E+00  3.1917236080E-02  3.1274773456E-02  3.7125992244E-01
  5.4650000000E+03  1.9488306935E+00  7.6935706646E+00  3.2005539208E-02  3.1360055744E-02  3.7149622746E-01
  5.4700000000E+03  1.9510302577E+00  7.6895380121E+00  3.2094005315E-02  3.1445489369E-02  3.7173228673E-01
  5.4750000000E+03  1.9532302914E+00  7.6855111550E+00  3.2182634553E-02  3.1531074446E-02  3.7196810080E-01
  5.4800000000E+03  1.9554307943E+00  7.6814900795E+00  3.2271427073E-02  3.1616811091E-02  3.7220367023E-01
  5.4850000000E+03  1.9576317661E+00  7.6774747722E+00  3.2360383024E-02  3.1702699418E-02  3.7243899557E-01
  5.4900000000E+03  1.9598332063E+00  7.6734652195E+00  3.2449502557E-02  3.1788739544E-02  3.7267407739E-01
  5.4950000000E+03  1.9620351148E+00  7.6694614080E+00  3.2538785824E-02  3.1874931583E-02  3.7290891622E-01
  5.5000000000E+03  1.9642412595E+00  7.6654633242E+00  3.2628232976E-02  3.1961276647E-02  3.7314351262E-01
  5.5050000000E+03  1.9664482138E+00  7.6615069889E+00  3.2718300920E-02  3.2048212823E-02  3.7337786714E-01
  5.5100000000E+03  1.9686556406E+00  7.6576007803E+00  3.2808535165E-02  3.2135304015E-02  3.7361198032E-01
  5.5150000000E+03  1.9708635399E+00  7.6537001037E+00  3.2898935867E-02  3.2222549566E-02  3.7384585271E-01
  5.5200000000E+03  1.9730719112E+00  7.6498049461E+00  3.2989503180E-02  3.2309949594E-02  3.7407948504E-01
  5.5250000000E+03  1.9752807542E+00  7.6459152948E+00  3.3080237259E-02  3.2397504219E-02  3.7431287799E-01
  5.5300000000E+03  1.9774900686E+00  7.6420311371E+00  3.3171138260E-02  3.2485213558E-02  3.7454603220E-01
  5.5350000000E+03  1.9796998540E+00  7.6381524601E+00  3.3262206337E-02  3.2573077729E-02  3.7477894831E-01
  5.5400000000E+03  1.9819101102E+00  7.6342792513E+00  3.3353441646E-02  3.2661096851E-02  3.7501162696E-01
  5.5450000000E+03  1.9841208368E+00  7.6304114980E+00  3.3444844342E-02  3.2749271041E-02  3.7524406880E-01
  5.5500000000E+03  1.9863320694E+00  7.6265491876E+00  3.3536414579E-02  3.2837600427E-02  3.7547627444E-01
  5.5550000000E+03  1.9885437838E+00  7.6226923075E+00  3.3628152514E-02  3.2926085121E-02  3.7570824452E-01
  5.5600000000E+03  1.9907559678E+00  7.6188408453E+00  3.3720058300E-02  3.3014725236E-02  3.7593997968E-01
  5.5650000000E+03  1.9929686210E+00  7.6149947884E+00  3.3812132094E-02  3.3103520891E-02  3.7617148053E-01
  5.5700000000E+03  1.9951817430E+00  7.6111541245E+00  3.3904374050E-02  3.3192472203E-02  3.7640274770E-01
  5.5750000000E+03  1.9973953335E+00  7.6073188411E+00  3.3996784323E-02  3.3281579290E-02  3.7663378181E-01
  5.5800000000E+03  1.9996093923E+00  7.6034889259E+00  3.4089363068E-02  3.3370842269E-02  3.7686458348E-01
  5.5850000000E+03  2.0018239189E+00  7.5996643666E+00  3.4182110442E-02  3.3460261257E-02  3.7709515333E-01
  5.5900000000E+03  2.0040389131E+00  7.5958451508E+00  3.4275026597E-02  3.3549836371E-02  3.7732549197E-01
  5.5950000000E+03  2.0062543746E+00  7.5920877313E+00  3.4368111691E-02  3.3639568838E-02  3.7755560001E-01
  5.6000000000E+03  2.0084702748E+00  7.5883564079E+00  3.4461365877E-02  3.3729458082E-02  3.7778547806E-01
  5.6050000000E+03  2.0106866114E+00  7.5846302460E+00  3.4554789312E-02  3.3819503812E-02  3.7801512673E-01
  5.6100000000E+03  2.0129034143E+00  7.5809092338E+00  3.4648382150E-02  3.3909706153E-02  3.7824454663E-01
  5.6150000000E+03  2.0151206831E+00  7.5771933595E+00  3.4742144546E-02  3.4000065222E-02  3.7847373835E-01
  5.6200000000E+03  2.0173384174E+00  7.5734826117E+00  3.4836076655E-02  3.4090581136E-02  3.7870270249E-01
  5.6250000000E+03  2.0195566170E+00  7.5697769786E+00  3.4930178633E-02  3.4181254012E-02  3.7893143966E-01
  5.6300000000E+03  2.0217752816E+00  7.5660764486E+00  3.5024450634E-02  3.4272083966E-02  3.7915995045E-01
  5.6350000000E+03  2.0239944108E+00  7.5623810102E+00  3.5118892815E-02  3.4363071116E-02  3.7938823546E-01
  5.6400000000E+03  2.0262140043E+00  7.5586906520E+00  3.5213505329E-02  3.4454215577E-02  3.7961629527E-01
  5.6450000000E+03  2.0284340619E+00  7.5550053623E+00  3.5308288332E-02  3.4545517465E-02  3.7984413047E-01
  5.6500000000E+03  2.0306547067E+00  7.5513251298E+00  3.5403241980E-02  3.4636976935E-02  3.8007174165E-01
  5.6550000000E+03  2.0328766727E+00  7.5476499430E+00  3.5498366427E-02  3.4728594315E-02  3.8029912940E-01
  5.6600000000E+03  2.0350991031E+00  7.5439797906E+00  3.5593661828E-02  3.4820369475E-02  3.8052629430E-01
  5.6650000000E+03  2.0373219975E+00  7.5403146613E+00  3.5689128339E-02  3.4912302529E-02  3.8075323692E-01
  5.6700000000E+03  2.0395453557E+00  7.5366545438E+00  3.5784766115E-02  3.5004393595E-02  3.8097995785E-01
  5.6750000000E+03  2.0417691772E+00  7.5329994267E+00  3.5880575311E-02  3.5096642787E-02  3.8120645766E-01
  5.6800000000E+03  2.0439934619E+00  7.5293492989E+00  3.5976556082E-02  3.5189050223E-02  3.8143273693E-01
  5.6850000000E+03  2.0462182093E+00  7.5257581188E+00  3.6072708583E-02  3.5281617204E-02  3.8165879623E-01
  5.6900000000E+03  2.0484434192E+00  7.5221920344E+00  3.6169032970E-02  3.5374343119E-02  3.8188463613E-01
  5.6950000000E+03  2.0506690912E+00  7.5186307699E+00  3.6265529397E-02  3.5467227641E-02  3.8211025719E-01
  5.7000000000E+03  2.0528952251E+00  7.5150743145E+00  3.6362198020E-02  3.5560270886E-02  3.8233565998E-01
  5.7050000000E+03  2.0551216115E+00  7.5115226574E+00  3.6459038993E-02  3.5653472908E-02  3.8256084507E-01
  5.7100000000E+03  2.0573483566E+00  7.5079757881E+00  3.6556052473E-02  3.5746833852E-02  3.8278581301E-01
  5.7150000000E+03  2.0595755623E+00  7.5044336959E+00  3.6653238615E-02  3.5840353865E-02  3.8301056437E-01
  5.7200000000E+03  2.0618032282E+00  7.5008963701E+00  3.6750597572E-02  3.5934033062E-02  3.8323509970E-01
  5.7250000000E+03  2.0640313540E+00  7.4973638003E+00  3.6848129501E-02  3.6027871558E-02  3.8345941956E-01
  5.7300000000E+03  2.0662599394E+00  7.4938359758E+00  3.6945834557E-02  3.6121869469E-02  3.8368352449E-01
  5.7350000000E+03  2.0684889841E+00  7.4903128861E+00  3.7043712895E-02  3.6216026910E-02  3.8390741507E-01
  5.7400000000E+03  2.0707184878E+00  7.4867945209E+00  3.7141764670E-02  3.6310343995E-02  3.8413109182E-01
  5.7450000000E+03  2.0729484502E+00  7.4832808696E+00  3.7239990038E-02  3.6404820839E-02  3.8435455530E-01
  5.7500000000E+03  2.0751788709E+00  7.4797719218E+00  3.7338389153E-02  3.6499457558E-02  3.8457780606E-01
  5.7550000000E+03  2.0774098804E+00  7.4762676672E+00  3.7436962170E-02  3.6594254306E-02  3.8480084463E-01
  5.7600000000E+03  2.0796423064E+00  7.4727680954E+00  3.7535709246E-02  3.6689211456E-02  3.8502367156E-01
  5.7650000000E+03  2.0818751912E+00  7.4692731960E+00  3.7634630534E-02  3.6784328827E-02  3.8524628739E-01
  5.7700000000E+03  2.0841085346E+00  7.4657829589E+00  3.7733726191E-02  3.6879606533E-02  3.8546869266E-01
  5.7750000000E+03  2.0863423363E+00  7.4623283293E+00  3.7832996371E-02  3.6975045448E-02  3.8569088790E-01
  5.7800000000E+03  2.0885765959E+00  7.4589184979E+00  3.7932441230E-02  3.7070645929E-02  3.8591287364E-01
  5.7850000000E+03  2.0908113131E+00  7.4555131709E+00  3.8032060923E-02  3.7166407105E-02  3.8613465042E-01
  5.7900000000E+03  2.0930464877E+00  7.4521123386E+00  3.8131855605E-02  3.7262329092E-02  3.8635621877E-01
  5.7950000000E+03  2.0952821194E+00  7.4487159910E+00  3.8231825431E-02  3.7358412004E-02  3.8657757921E-01
  5.8000000000E+03  2.0975182078E+00  7.4453241186E+00  3.8331970557E-02  3.7454655955E-02  3.8679873228E-01
  5.8050000000E+03  2.0997547526E+00  7.4419367114E+00  3.8432291137E-02  3.7551061058E-02  3.8701967849E-01
  5.8100000000E+03  2.1019922235E+00  7.4385537598E+00  3.8532787328E-02  3.7647627578E-02  3.8724041837E-01
  5.8150000000E+03  2.1042306770E+00  7.4351752542E+00  3.8633459283E-02  3.7744355650E-02  3.8746095243E-01
  5.8200000000E+03  2.1064695873E+00  7.4318011848E+00  3.8734307159E-02  3.7841245217E-02  3.8768128121E-01
  5.8250000000E+03  2.1087089541E+00  7.4284315420E+00  3.8835331110E-02  3.7938296395E-02  3.8790140521E-01
  5.8300000000E+03  2.1109487771E+00  7.4250663162E+00  3.8936531293E-02  3.8035509297E-02  3.8812132495E-01
  5.8350000000E+03  2.1131890560E+00  7.4217054978E+00  3.9037907861E-02  3.8132884036E-02  3.8834104094E-01
  5.8400000000E+03  2.1154297905E+00  7.4183490774E+00  3.9139460970E-02  3.8230420726E-02  3.8856055370E-01
  5.8450000000E+03  2.1176709803E+00  7.4149970453E+00  3.9241190776E-02  3.8328119479E-02  3.8877986373E-01
  5.8500000000E+03  2.1199126251E+00  7.4116493922E+00  3.9343097434E-02  3.8425980409E-02  3.8899897154E-01
  5.8550000000E+03  2.1221547247E+00  7.4083061085E+00  3.9445181098E-02  3.8524003630E-02  3.8921787757E-01
  5.8600000000E+03  2.1243972787E+00  7.4049671848E+00  3.9547441925E-02  3.8622189254E-02  3.8943658237E-01
  5.8650000000E+03  2.1266405659E+00  7.4016326118E+00  3.9649880069E-02  3.8720537487E-02  3.8965508653E-01
  5.8700000000E+03  2.1288844137E+00  7.3983602535E+00  3.9752495686E-02  3.8819049978E-02  3.8987339060E-01
  5.8750000000E+03  2.1311287156E+00  7.3951025053E+00  3.9855288930E-02  3.8917725516E-02  3.9009149515E-01
  5.8800000000E+03  2.1333734712E+00  7.3918489611E+00  3.9958259958E-02  3.9016563929E-02  3.9030940075E-01
  5.8850000000E+03  2.1356186802E+00  7.3885996119E+00  4.0061408924E-02  3.9115565329E-02  3.9052710796E-01
  5.8900000000E+03  2.1378643424E+00  7.3853544489E+00  4.0164735984E-02  3.9214729829E-02  3.9074461735E-01
  5.8950000000E+03  2.1401104574E+00  7.3821134629E+00  4.0268241292E-02  3.9314057542E-02  3.9096192946E-01
  5.9000000000E+03  2.1423570249E+00  7.3788766452E+00  4.0371925005E-02  3.9413548581E-02  3.9117904487E-01
  5.9050000000E+03  2.1446040448E+00  7.3756439869E+00  4.0475787277E-02  3.9513203057E-02  3.9139596411E-01
  5.9100000000E+03  2.1468515165E+00  7.3724154790E+00  4.0579828264E-02  3.9613021083E-02  3.9161268775E-01
  5.9150000000E+03  2.1490994400E+00  7.3691911128E+00  4.0684048120E-02  3.9713002771E-02  3.9182921634E-01
  5.9200000000E+03  2.1513491769E+00  7.3659708794E+00  4.0788447002E-02  3.9813148700E-02  3.9204555042E-01
  5.9250000000E+03  2.1535995595E+00  7.3627547701E+00  4.0893025064E-02  3.9913458585E-02  3.9226169054E-01
  5.9300000000E+03  2.1558503949E+00  7.3595427761E+00  4.0997782462E-02  4.0013932471E-02  3.9247763724E-01
  5.9350000000E+03  2.1581016827E+00  7.3563348886E+00  4.1102719350E-02  4.0114570472E-02  3.9269339107E-01
  5.9400000000E+03  2.1603534227E+00  7.3531310990E+00  4.1207835885E-02  4.0215372698E-02  3.9290895257E-01
  5.9450000000E+03  2.1626056145E+00  7.3499313987E+00  4.1313132222E-02  4.0316339262E-02  3.9312432227E-01
  5.9500000000E+03  2.1648582579E+00  7.3467357788E+00  4.1418608515E-02  4.0417470275E-02  3.9333950072E-01
  5.9550000000E+03  2.1671113526E+00  7.3435442309E+00  4.1524264920E-02  4.0518765848E-02  3.9355448844E-01
  5.9600000000E+03  2.1693648983E+00  7.3403567463E+00  4.1630101593E-02  4.0620226093E-02  3.9376928597E-01
  5.9650000000E+03  2.1716188947E+00  7.3372362523E+00  4.1736118688E-02  4.0721853060E-02  3.9398389384E-01
  5.9700000000E+03  2.1738733416E+00  7.3341222043E+00  4.1842316361E-02  4.0823645019E-02  3.9419831258E-01
  5.9750000000E+03  2.1761279411E+00  7.3310120833E+00  4.1948694767E-02  4.0925601898E-02  3.9441254272E-01
  5.9800000000E+03  2.1783829676E+00  7.3279058811E+00  4.2055254061E-02  4.1027723906E-02  3.9462658477E-01
  5.9850000000E+03  2.1806384434E+00  7.3248035894E+00  4.2161994399E-02  4.1130011161E-02  3.9484043927E-01
  5.9900000000E+03  2.1828943680E+00  7.3217052001E+00  4.2268915936E-02  4.1232463775E-02  3.9505410673E-01
  5.9950000000E+03  2.1851507412E+00  7.3186107049E+00  4.2376018828E-02  4.1335081858E-02  3.9526758768E-01
  6.0000000000E+03  2.1874075627E+00  7.3155200958E+00  4.2483303229E-02  4.1437865522E-02  3.9548088263E-01
  6.0050000000E+03  2.1896648322E+00  7.3124333647E+00  4.2591513004E-02  4.1541522369E-02  3.9569399209E-01
  6.0100000000E+03  2.1919225495E+00  7.3093505035E+00  4.2699907774E-02  4.1645347910E-02  3.9590691658E-01
  6.0150000000E+03  2.1941807143E+00  7.3062715040E+00  4.2808487700E-02  4.1749342259E-02  3.9611965662E-01
  6.0200000000E+03  2.1964393262E+00  7.3031963583E+00  4.2917252943E-02  4.1853505531E-02  3.9633221271E-01
  6.0250000000E+03  2.1986983851E+00  7.3001250583E+00  4.3026203665E-02  4.1957837841E-02  3.9654458535E-01
  6.0300000000E+03  2.2009661661E+00  7.2970575961E+00  4.3135340027E-02  4.2062342328E-02  3.9675677507E-01
  6.0350000000E+03  2.2032355327E+00  7.2939939637E+00  4.3244662190E-02  4.2167016518E-02  3.9696878236E-01
  6.0400000000E+03  2.2055053570E+00  7.2909341530E+00  4.3354170316E-02  4.2271860116E-02  3.9718060772E-01
  6.0450000000E+03  2.2077756385E+00  7.2878781563E+00  4.3463864566E-02  4.2376873236E-02  3.9739225165E-01
  6.0500000000E+03  2.2100463771E+00  7.2848259656E+00  4.3573745102E-02  4.2482055994E-02  3.9760371467E-01
  6.0550000000E+03  2.2123175725E+00  7.2817775729E+00  4.3683812085E-02  4.2587408503E-02  3.9781499725E-01
  6.0600000000E+03  2.2145892242E+00  7.2787813146E+00  4.3794065676E-02  4.2692932543E-02  3.9802609990E-01
  6.0650000000E+03  2.2168613322E+00  7.2758030675E+00  4.3904506037E-02  4.2798627075E-02  3.9823702312E-01
  6.0700000000E+03  2.2191338960E+00  7.2728284917E+00  4.4015133329E-02  4.2904491723E-02  3.9844776739E-01
  6.0750000000E+03  2.2214069154E+00  7.2698575798E+00  4.4125947714E-02  4.3010526603E-02  3.9865833321E-01
  6.0800000000E+03  2.2236803901E+00  7.2668903241E+00  4.4236949353E-02  4.3116731829E-02  3.9886872106E-01
  6.0850000000E+03  2.2259981533E+00  7.2639267173E+00  4.4348138407E-02  4.3223124042E-02  3.9907893144E-01
  6.0900000000E+03  2.2283326485E+00  7.2609667517E+00  4.4459515038E-02  4.3329693078E-02  3.9928896482E-01
  6.0950000000E+03  2.2306676731E+00  7.2580104201E+00  4.4571079408E-02  4.3436432961E-02  3.9949882169E-01
  6.1000000000E+03  2.2330032268E+00  7.2550577148E+00  4.4682831677E-02  4.3543343804E-02  3.9970850254E-01
  6.1050000000E+03  2.2353393092E+00  7.2521086285E+00  4.4794772008E-02  4.3650425723E-02  3.9991800785E-01
  6.1100000000E+03  2.2376759201E+00  7.2491631539E+00  4.4906900561E-02  4.3757678832E-02  4.0012733809E-01
  6.1150000000E+03  2.2400130591E+00  7.2462212835E+00  4.5019217498E-02  4.3865103245E-02  4.0033649374E-01
  6.1200000000E+03  2.2423507259E+00  7.2432830100E+00  4.5131722981E-02  4.3972699077E-02  4.0054547528E-01
  6.1250000000E+03  2.2446889202E+00  7.2403483260E+00  4.5244417171E-02  4.4080466441E-02  4.0075428318E-01
  6.1300000000E+03  2.2470276417E+00  7.2374172242E+00  4.5357300230E-02  4.4188405452E-02  4.0096291791E-01
  6.1350000000E+03  2.2493668902E+00  7.2344896975E+00  4.5470372318E-02  4.4296516223E-02  4.0117137995E-01
  6.1400000000E+03  2.2517065628E+00  7.2315657384E+00  4.5583633598E-02  4.4404798829E-02  4.0137966976E-01
  6.1450000000E+03  2.2540466487E+00  7.2286453397E+00  4.5697084231E-02  4.4513253378E-02  4.0158778782E-01
  6.1500000000E+03  2.2563872603E+00  7.2257284943E+00  4.5810724379E-02  4.4621880029E-02  4.0179573458E-01
  6.1550000000E+03  2.2587283973E+00  7.2228315181E+00  4.5924554202E-02  4.4730679521E-02  4.0200351052E-01
  6.1600000000E+03  2.2610700594E+00  7.2199816323E+00  4.6038573864E-02  4.4839653028E-02  4.0221111609E-01
  6.1650000000E+03  2.2634122462E+00  7.2171351819E+00  4.6152783524E-02  4.4948798998E-02  4.0241855177E-01
  6.1700000000E+03  2.2657549575E+00  7.2142921600E+00  4.6267183344E-02  4.5058117547E-02  4.0262581819E-01
  6.1750000000E+03  2.2680981929E+00  7.2114525596E+00  4.6381773487E-02  4.5167608786E-02  4.0283291596E-01
  6.1800000000E+03  2.2704419522E+00  7.2086163740E+00  4.6496554113E-02  4.5277272830E-02  4.0303984557E-01
  6.1850000000E+03  2.2727862349E+00  7.2057835961E+00  4.6611525384E-02  4.5387109790E-02  4.0324660751E-01
  6.1900000000E+03  2.2751310409E+00  7.2029542192E+00  4.6726687462E-02  4.5497119781E-02  4.0345320229E-01
  6.1950000000E+03  2.2774763867E+00  7.2001282364E+00  4.6842040508E-02  4.5607302922E-02  4.0365963040E-01
  6.2000000000E+03  2.2798223811E+00  7.1973056409E+00  4.6957584684E-02  4.5717659370E-02  4.0386589232E-01
  6.2050000000E+03  2.2821688981E+00  7.1944864260E+00  4.7073320151E-02  4.5828189187E-02  4.0407198855E-01
  6.2100000000E+03  2.2845159372E+00  7.1916705849E+00  4.7189247071E-02  4.5938892486E-02  4.0427791958E-01
  6.2150000000E+03  2.2868634981E+00  7.1888581108E+00  4.7305365605E-02  4.6049769380E-02  4.0448368588E-01
  6.2200000000E+03  2.2892115807E+00  7.1860489970E+00  4.7421675915E-02  4.6160819981E-02  4.0468928795E-01
  6.2250000000E+03  2.2915601845E+00  7.1832432368E+00  4.7538178163E-02  4.6272044401E-02  4.0489472626E-01
  6.2300000000E+03  2.2939093093E+00  7.1804408235E+00  4.7654872510E-02  4.6383442753E-02  4.0510000130E-01
  6.2350000000E+03  2.2962589547E+00  7.1776417504E+00  4.7771759117E-02  4.6495015149E-02  4.0530511355E-01
  6.2400000000E+03  2.2986091205E+00  7.1748460109E+00  4.7888838147E-02  4.6606761700E-02  4.0551006348E-01
  6.2450000000E+03  2.3009598064E+00  7.1720535983E+00  4.8006109760E-02  4.6718682521E-02  4.0571485158E-01
  6.2500000000E+03  2.3033110120E+00  7.1692645061E+00  4.8123574119E-02  4.6830777721E-02  4.0591947830E-01
  6.2550000000E+03  2.3056628178E+00  7.1665050347E+00  4.8241231385E-02  4.6943048575E-02  4.0612394414E-01
  6.2600000000E+03  2.3080151857E+00  7.1637797740E+00  4.8359081720E-02  4.7055495397E-02  4.0632824955E-01
  6.2650000000E+03  2.3103680726E+00  7.1610577244E+00  4.8477125285E-02  4.7168116958E-02  4.0653239501E-01
  6.2700000000E+03  2.3127214782E+00  7.1583388793E+00  4.8595362241E-02  4.7280913370E-02  4.0673638099E-01
  6.2750000000E+03  2.3150754021E+00  7.1556232325E+00  4.8713792751E-02  4.7393884745E-02  4.0694020795E-01
  6.2800000000E+03  2.3174298443E+00  7.1529107778E+00  4.8832416977E-02  4.7507031193E-02  4.0714387635E-01
  6.2850000000E+03  2.3197848042E+00  7.1502015087E+00  4.8951235079E-02  4.7620352827E-02  4.0734738667E-01
  6.2900000000E+03  2.3221402816E+00  7.1474954191E+00  4.9070247219E-02  4.7733849758E-02  4.0755073936E-01
  6.2950000000E+03  2.3244962762E+00  7.1447925027E+00  4.9189453559E-02  4.7847522097E-02  4.0775393488E-01
  6.3000000000E+03  2.3268527878E+00  7.1420927533E+00  4.9308854261E-02  4.7961369954E-02  4.0795697369E-01
  6.3050000000E+03  2.3292098160E+00  7.1393961645E+00  4.9428449487E-02  4.8075393442E-02  4.0815985624E-01
  6.3100000000E+03  2.3315673075E+00  7.1367027303E+00  4.9548239397E-02  4.8189592648E-02  4.0836258300E-01
  6.3150000000E+03  2.3339247524E+00  7.1340124444E+00  4.9668224154E-02  4.8303967466E-02  4.0856515442E-01
  6.3200000000E+03  2.3362827123E+00  7.1313253007E+00  4.9788403919E-02  4.8418518243E-02  4.0876757094E-01
  6.3250000000E+03  2.3386411869E+00  7.1286412931E+00  4.9908778854E-02  4.8533245093E-02  4.0896983302E-01
  6.3300000000E+03  2.3410001758E+00  7.1259604153E+00  5.0029349121E-02  4.8648148124E-02  4.0917194112E-01
  6.3350000000E+03  2.3433596789E+00  7.1232826613E+00  5.0150114881E-02  4.8763227448E-02  4.0937389567E-01
  6.3400000000E+03  2.3457196957E+00  7.1206080249E+00  5.0271076295E-02  4.8878483175E-02  4.0957569712E-01
  6.3450000000E+03  2.3480802260E+00  7.1179365001E+00  5.0392233527E-02  4.8993915415E-02  4.0977734593E-01
  6.3500000000E+03  2.3504412696E+00  7.1152680809E+00  5.0513586737E-02  4.9109524278E-02  4.0997884252E-01
