#[MATERIAL DEFINITION FOR MC-GPU: interaction mean free path and sampling data from PENELOPE 2018]
#[MATERIAL NAME]
# med_lowerarm                                                  
#[NOMINAL DENSITY (g/cm^3)]
#   0.98000000
#[NUMBER OF DATA VALUES]
#  23002
#[MEAN FREE PATHS (cm) (ie, average distance between interactions)]
#[Energy (eV)     | Rayleigh        | Compton         | Photoelectric   | TOTAL (+pair prod) (cm) | Rayleigh: max cumul prob F^2]
  5.0000000000E+03  2.5181234704E+00  7.7732455146E+00  4.3521420438E-02  4.2547834558E-02  3.4044624128E-01
  5.0050000000E+03  2.5210824039E+00  7.7697042641E+00  4.3655082033E-02  4.2676316249E-02  3.4069787622E-01
  5.0100000000E+03  2.5240418546E+00  7.7661681605E+00  4.3789019800E-02  4.2805051419E-02  3.4094930536E-01
  5.0150000000E+03  2.5270039490E+00  7.7626371910E+00  4.3923234032E-02  4.2934040895E-02  3.4120052938E-01
  5.0200000000E+03  2.5299678341E+00  7.7591113433E+00  4.4057725022E-02  4.3063284653E-02  3.4145154896E-01
  5.0250000000E+03  2.5329322398E+00  7.7555906046E+00  4.4192493064E-02  4.3192782540E-02  3.4170236477E-01
  5.0300000000E+03  2.5358971655E+00  7.7520749626E+00  4.4327538450E-02  4.3322534772E-02  3.4195297749E-01
  5.0350000000E+03  2.5388626108E+00  7.7485644048E+00  4.4462861476E-02  4.3452541563E-02  3.4220338778E-01
  5.0400000000E+03  2.5418285754E+00  7.7450589189E+00  4.4598462433E-02  4.3582803127E-02  3.4245359631E-01
  5.0450000000E+03  2.5447950588E+00  7.7415584924E+00  4.4734341615E-02  4.3713319676E-02  3.4270360374E-01
  5.0500000000E+03  2.5477620605E+00  7.7380631131E+00  4.4870499316E-02  4.3844091426E-02  3.4295341074E-01
  5.0550000000E+03  2.5507295802E+00  7.7345727687E+00  4.5006935829E-02  4.3975118589E-02  3.4320301797E-01
  5.0600000000E+03  2.5536978716E+00  7.7310874470E+00  4.5143651448E-02  4.4106401455E-02  3.4345242608E-01
  5.0650000000E+03  2.5566671526E+00  7.7276071358E+00  4.5280646466E-02  4.4237940302E-02  3.4370163573E-01
  5.0700000000E+03  2.5596369512E+00  7.7241318230E+00  4.5417921177E-02  4.4369735203E-02  3.4395064757E-01
  5.0750000000E+03  2.5626072671E+00  7.7206614965E+00  4.5555475874E-02  4.4501786371E-02  3.4419946226E-01
  5.0800000000E+03  2.5655780998E+00  7.7171961441E+00  4.5693310851E-02  4.4634094018E-02  3.4444808044E-01
  5.0850000000E+03  2.5685494489E+00  7.7137934024E+00  4.5831426401E-02  4.4766660298E-02  3.4469650277E-01
  5.0900000000E+03  2.5715213140E+00  7.7104010934E+00  4.5969822818E-02  4.4899483695E-02  3.4494472988E-01
  5.0950000000E+03  2.5744936947E+00  7.7070136048E+00  4.6108500396E-02  4.5032564232E-02  3.4519276242E-01
  5.1000000000E+03  2.5774665905E+00  7.7036309250E+00  4.6247459428E-02  4.5165902122E-02  3.4544060103E-01
  5.1050000000E+03  2.5804400010E+00  7.7002530424E+00  4.6386700207E-02  4.5299497577E-02  3.4568824636E-01
  5.1100000000E+03  2.5834137660E+00  7.6968799456E+00  4.6526223028E-02  4.5433350758E-02  3.4593569903E-01
  5.1150000000E+03  2.5863880431E+00  7.6935116230E+00  4.6666028184E-02  4.5567461925E-02  3.4618295969E-01
  5.1200000000E+03  2.5893628335E+00  7.6901480634E+00  4.6806115969E-02  4.5701831290E-02  3.4643002896E-01
  5.1250000000E+03  2.5923381367E+00  7.6867892552E+00  4.6946486676E-02  4.5836459064E-02  3.4667690747E-01
  5.1300000000E+03  2.5953139524E+00  7.6834351872E+00  4.7087140600E-02  4.5971345458E-02  3.4692359586E-01
  5.1350000000E+03  2.5982902801E+00  7.6800858480E+00  4.7228078033E-02  4.6106490681E-02  3.4717009476E-01
  5.1400000000E+03  2.6012671194E+00  7.6767412265E+00  4.7369299270E-02  4.6241894945E-02  3.4741640478E-01
  5.1450000000E+03  2.6042444700E+00  7.6734013113E+00  4.7510804604E-02  4.6377558460E-02  3.4766252656E-01
  5.1500000000E+03  2.6072223313E+00  7.6700660914E+00  4.7652594330E-02  4.6513481436E-02  3.4790846071E-01
  5.1550000000E+03  2.6102006418E+00  7.6667355554E+00  4.7794668740E-02  4.6649664062E-02  3.4815420784E-01
  5.1600000000E+03  2.6131794105E+00  7.6634096924E+00  4.7937028129E-02  4.6786106552E-02  3.4839976859E-01
  5.1650000000E+03  2.6161586886E+00  7.6601220044E+00  4.8079672791E-02  4.6922810388E-02  3.4864514356E-01
  5.1700000000E+03  2.6191384757E+00  7.6568658743E+00  4.8222603019E-02  4.7059775556E-02  3.4889033338E-01
  5.1750000000E+03  2.6221187715E+00  7.6536142738E+00  4.8365819108E-02  4.7197001257E-02  3.4913533864E-01
  5.1800000000E+03  2.6250995755E+00  7.6503671922E+00  4.8509321351E-02  4.7334487702E-02  3.4938015996E-01
  5.1850000000E+03  2.6280808873E+00  7.6471246190E+00  4.8653110041E-02  4.7472235098E-02  3.4962479795E-01
  5.1900000000E+03  2.6310627065E+00  7.6438865436E+00  4.8797185474E-02  4.7610243654E-02  3.4986925321E-01
  5.1950000000E+03  2.6340450327E+00  7.6406529553E+00  4.8941547943E-02  4.7748513579E-02  3.5011352635E-01
  5.2000000000E+03  2.6370279020E+00  7.6374238436E+00  4.9086197741E-02  4.7887045093E-02  3.5035761797E-01
  5.2050000000E+03  2.6400158133E+00  7.6341991982E+00  4.9231135164E-02  4.8025839893E-02  3.5060152868E-01
  5.2100000000E+03  2.6430042362E+00  7.6309790084E+00  4.9376360504E-02  4.8164896698E-02  3.5084525907E-01
  5.2150000000E+03  2.6459931706E+00  7.6277632638E+00  4.9521874055E-02  4.8304215717E-02  3.5108880973E-01
  5.2200000000E+03  2.6489826158E+00  7.6245519542E+00  4.9667676113E-02  4.8443797156E-02  3.5133218127E-01
  5.2250000000E+03  2.6519725716E+00  7.6213450691E+00  4.9813766970E-02  4.8583641223E-02  3.5157537427E-01
  5.2300000000E+03  2.6549630376E+00  7.6181425981E+00  4.9960146921E-02  4.8723748125E-02  3.5181838934E-01
  5.2350000000E+03  2.6579540133E+00  7.6149445311E+00  5.0106816260E-02  4.8864118070E-02  3.5206122705E-01
  5.2400000000E+03  2.6609454984E+00  7.6117508578E+00  5.0253775281E-02  4.9004751263E-02  3.5230388800E-01
  5.2450000000E+03  2.6639374923E+00  7.6085615679E+00  5.0401024277E-02  4.9145647911E-02  3.5254637278E-01
  5.2500000000E+03  2.6669383026E+00  7.6054305991E+00  5.0548563544E-02  4.9286813324E-02  3.5278868196E-01
  5.2550000000E+03  2.6699528551E+00  7.6023077739E+00  5.0696393375E-02  4.9428247350E-02  3.5303081614E-01
  5.2600000000E+03  2.6729679434E+00  7.5991891990E+00  5.0844514064E-02  4.9569945539E-02  3.5327277589E-01
  5.2650000000E+03  2.6759835669E+00  7.5960748646E+00  5.0992925906E-02  4.9711908096E-02  3.5351456180E-01
  5.2700000000E+03  2.6789997254E+00  7.5929647609E+00  5.1141629194E-02  4.9854135229E-02  3.5375617444E-01
  5.2750000000E+03  2.6820164183E+00  7.5898588781E+00  5.1290624223E-02  4.9996627142E-02  3.5399761439E-01
  5.2800000000E+03  2.6850336453E+00  7.5867572065E+00  5.1439911288E-02  5.0139384041E-02  3.5423888222E-01
  5.2850000000E+03  2.6880514059E+00  7.5836597365E+00  5.1589490681E-02  5.0282406132E-02  3.5447997852E-01
  5.2900000000E+03  2.6910696997E+00  7.5805664583E+00  5.1739362698E-02  5.0425693620E-02  3.5472090384E-01
  5.2950000000E+03  2.6940885264E+00  7.5774773624E+00  5.1889527632E-02  5.0569246709E-02  3.5496165876E-01
  5.3000000000E+03  2.6971081425E+00  7.5743924391E+00  5.2039985778E-02  5.0713065697E-02  3.5520224385E-01
  5.3050000000E+03  2.7001284155E+00  7.5713116789E+00  5.2190737431E-02  5.0857150741E-02  3.5544265967E-01
  5.3100000000E+03  2.7031492205E+00  7.5682350723E+00  5.2341782884E-02  5.1001502002E-02  3.5568290680E-01
  5.3150000000E+03  2.7061705572E+00  7.5651626097E+00  5.2493122431E-02  5.1146119684E-02  3.5592298579E-01
  5.3200000000E+03  2.7091924252E+00  7.5620942817E+00  5.2644756368E-02  5.1291003991E-02  3.5616289720E-01
  5.3250000000E+03  2.7122148241E+00  7.5590300788E+00  5.2796684988E-02  5.1436155128E-02  3.5640264161E-01
  5.3300000000E+03  2.7152377534E+00  7.5559724447E+00  5.2948908586E-02  5.1581573412E-02  3.5664221956E-01
  5.3350000000E+03  2.7182612128E+00  7.5529717235E+00  5.3101427456E-02  5.1727261410E-02  3.5688163161E-01
  5.3400000000E+03  2.7212852019E+00  7.5499750033E+00  5.3254241893E-02  5.1873216876E-02  3.5712087833E-01
  5.3450000000E+03  2.7243097202E+00  7.5469822750E+00  5.3407352190E-02  5.2019440014E-02  3.5735996026E-01
  5.3500000000E+03  2.7273340353E+00  7.5439935296E+00  5.3560758643E-02  5.2165930759E-02  3.5759887795E-01
  5.3550000000E+03  2.7303587703E+00  7.5410087581E+00  5.3714461545E-02  5.2312689540E-02  3.5783763197E-01
  5.3600000000E+03  2.7333840324E+00  7.5380279514E+00  5.3868461192E-02  5.2459716599E-02  3.5807622286E-01
  5.3650000000E+03  2.7364098210E+00  7.5350511006E+00  5.4022757877E-02  5.2607012137E-02  3.5831465116E-01
  5.3700000000E+03  2.7394361358E+00  7.5320781968E+00  5.4177351895E-02  5.2754576358E-02  3.5855291743E-01
  5.3750000000E+03  2.7424629763E+00  7.5291092311E+00  5.4332243541E-02  5.2902409463E-02  3.5879102221E-01
  5.3800000000E+03  2.7454903422E+00  7.5261441946E+00  5.4487433109E-02  5.3050511654E-02  3.5902896604E-01
  5.3850000000E+03  2.7485182332E+00  7.5231830785E+00  5.4642920894E-02  5.3198883132E-02  3.5926674948E-01
  5.3900000000E+03  2.7515466487E+00  7.5202258739E+00  5.4798707189E-02  5.3347524100E-02  3.5950437305E-01
  5.3950000000E+03  2.7545755883E+00  7.5172725720E+00  5.4954792291E-02  5.3496434758E-02  3.5974183730E-01
  5.4000000000E+03  2.7576062305E+00  7.5143231642E+00  5.5111176492E-02  5.3645615753E-02  3.5997914277E-01
  5.4050000000E+03  2.7606374242E+00  7.5113776416E+00  5.5267860089E-02  5.3795066854E-02  3.6021628999E-01
  5.4100000000E+03  2.7636691424E+00  7.5084359956E+00  5.5424843375E-02  5.3944788251E-02  3.6045327951E-01
  5.4150000000E+03  2.7667013847E+00  7.5054982175E+00  5.5582126644E-02  5.4094780145E-02  3.6069011185E-01
  5.4200000000E+03  2.7697341508E+00  7.5026109706E+00  5.5739710193E-02  5.4245045176E-02  3.6092678754E-01
  5.4250000000E+03  2.7727674402E+00  7.4997336193E+00  5.5897594315E-02  5.4395581452E-02  3.6116330713E-01
  5.4300000000E+03  2.7758012526E+00  7.4968600207E+00  5.6055779305E-02  5.4546388855E-02  3.6139967114E-01
  5.4350000000E+03  2.7788355875E+00  7.4939901664E+00  5.6214265457E-02  5.4697467586E-02  3.6163588009E-01
  5.4400000000E+03  2.7818704446E+00  7.4911240482E+00  5.6373053067E-02  5.4848817842E-02  3.6187193452E-01
  5.4450000000E+03  2.7849058236E+00  7.4882616577E+00  5.6532142428E-02  5.5000439824E-02  3.6210783495E-01
  5.4500000000E+03  2.7879914487E+00  7.4854029867E+00  5.6691533837E-02  5.5152353191E-02  3.6234358191E-01
  5.4550000000E+03  2.7910779588E+00  7.4825480269E+00  5.6851227587E-02  5.5304538953E-02  3.6257917592E-01
  5.4600000000E+03  2.7941650534E+00  7.4796967701E+00  5.7011223973E-02  5.5456997194E-02  3.6281461750E-01
  5.4650000000E+03  2.7972527321E+00  7.4768492082E+00  5.7171523290E-02  5.5609728113E-02  3.6304990718E-01
  5.4700000000E+03  2.8003409945E+00  7.4740053330E+00  5.7332125833E-02  5.5762731908E-02  3.6328504547E-01
  5.4750000000E+03  2.8034298402E+00  7.4711651363E+00  5.7493031896E-02  5.5916008779E-02  3.6352003289E-01
  5.4800000000E+03  2.8065192686E+00  7.4683286100E+00  5.7654241775E-02  5.6069558923E-02  3.6375486996E-01
  5.4850000000E+03  2.8096092795E+00  7.4654957461E+00  5.7815755764E-02  5.6223382540E-02  3.6398955720E-01
  5.4900000000E+03  2.8126998724E+00  7.4626665364E+00  5.7977574157E-02  5.6377479828E-02  3.6422409511E-01
  5.4950000000E+03  2.8157910468E+00  7.4598409730E+00  5.8139697251E-02  5.6531850984E-02  3.6445848422E-01
  5.5000000000E+03  2.8188850985E+00  7.4570190479E+00  5.8302125340E-02  5.6686497135E-02  3.6469272503E-01
  5.5050000000E+03  2.8219799390E+00  7.4542233091E+00  5.8465646509E-02  5.6842163600E-02  3.6492681805E-01
  5.5100000000E+03  2.8250753631E+00  7.4514590121E+00  5.8629476963E-02  5.6998109501E-02  3.6516076380E-01
  5.5150000000E+03  2.8281713703E+00  7.4486982460E+00  5.8793617005E-02  5.7154333431E-02  3.6539456280E-01
  5.5200000000E+03  2.8312679602E+00  7.4459410032E+00  5.8958066937E-02  5.7310835591E-02  3.6562821578E-01
  5.5250000000E+03  2.8343651323E+00  7.4431872761E+00  5.9122827062E-02  5.7467616184E-02  3.6586172332E-01
  5.5300000000E+03  2.8374628863E+00  7.4404370569E+00  5.9287897684E-02  5.7624675413E-02  3.6609508591E-01
  5.5350000000E+03  2.8405612217E+00  7.4376903381E+00  5.9453279104E-02  5.7782013481E-02  3.6632830408E-01
  5.5400000000E+03  2.8436601382E+00  7.4349471119E+00  5.9618971626E-02  5.7939630589E-02  3.6656137830E-01
  5.5450000000E+03  2.8467596352E+00  7.4322073709E+00  5.9784975552E-02  5.8097526940E-02  3.6679430909E-01
  5.5500000000E+03  2.8498595411E+00  7.4294711075E+00  5.9951291186E-02  5.8255702663E-02  3.6702709693E-01
  5.5550000000E+03  2.8529599687E+00  7.4267383141E+00  6.0117918829E-02  5.8414158008E-02  3.6725974233E-01
  5.5600000000E+03  2.8560609755E+00  7.4240089831E+00  6.0284858786E-02  5.8572893199E-02  3.6749224577E-01
  5.5650000000E+03  2.8591625609E+00  7.4212831072E+00  6.0452111359E-02  5.8731908437E-02  3.6772460775E-01
  5.5700000000E+03  2.8622647245E+00  7.4185606789E+00  6.0619676851E-02  5.8891203923E-02  3.6795682877E-01
  5.5750000000E+03  2.8653674659E+00  7.4158416906E+00  6.0787555565E-02  5.9050779858E-02  3.6818890931E-01
  5.5800000000E+03  2.8684707848E+00  7.4131261350E+00  6.0955747804E-02  5.9210636443E-02  3.6842084986E-01
  5.5850000000E+03  2.8715746807E+00  7.4104140046E+00  6.1124253871E-02  5.9370773877E-02  3.6865265091E-01
  5.5900000000E+03  2.8746791532E+00  7.4077052921E+00  6.1293074069E-02  5.9531192361E-02  3.6888431294E-01
  5.5950000000E+03  2.8777842018E+00  7.4050351019E+00  6.1462208700E-02  5.9691894376E-02  3.6911583645E-01
  5.6000000000E+03  2.8808896472E+00  7.4023812459E+00  6.1631658069E-02  5.9852878636E-02  3.6934722191E-01
  5.6050000000E+03  2.8839954767E+00  7.3997307082E+00  6.1801422478E-02  6.0014144495E-02  3.6957846981E-01
  5.6100000000E+03  2.8871018806E+00  7.3970834817E+00  6.1971502230E-02  6.0175692233E-02  3.6980958063E-01
  5.6150000000E+03  2.8902088587E+00  7.3944395592E+00  6.2141897629E-02  6.0337522051E-02  3.7004055485E-01
  5.6200000000E+03  2.8933164105E+00  7.3917989338E+00  6.2312608977E-02  6.0499634146E-02  3.7027139295E-01
  5.6250000000E+03  2.8964245355E+00  7.3891615984E+00  6.2483636577E-02  6.0662028719E-02  3.7050209540E-01
  5.6300000000E+03  2.8995332334E+00  7.3865275460E+00  6.2654980734E-02  6.0824705966E-02  3.7073266269E-01
  5.6350000000E+03  2.9026425038E+00  7.3838967696E+00  6.2826641749E-02  6.0987666087E-02  3.7096309528E-01
  5.6400000000E+03  2.9057523463E+00  7.3812692622E+00  6.2998619927E-02  6.1150909279E-02  3.7119339366E-01
  5.6450000000E+03  2.9088627604E+00  7.3786450168E+00  6.3170915570E-02  6.1314435741E-02  3.7142355829E-01
  5.6500000000E+03  2.9119740935E+00  7.3760240266E+00  6.3343528982E-02  6.1478245825E-02  3.7165358965E-01
  5.6550000000E+03  2.9150884105E+00  7.3734062845E+00  6.3516460466E-02  6.1642340653E-02  3.7188348821E-01
  5.6600000000E+03  2.9182033015E+00  7.3707917838E+00  6.3689710325E-02  6.1806719352E-02  3.7211325443E-01
  5.6650000000E+03  2.9213187660E+00  7.3681805176E+00  6.3863278863E-02  6.1971382119E-02  3.7234288880E-01
  5.6700000000E+03  2.9244348036E+00  7.3655724789E+00  6.4037166383E-02  6.2136329151E-02  3.7257239176E-01
  5.6750000000E+03  2.9275514140E+00  7.3629676610E+00  6.4211373188E-02  6.2301560644E-02  3.7280176379E-01
  5.6800000000E+03  2.9306685966E+00  7.3603660570E+00  6.4385899581E-02  6.2467076795E-02  3.7303100536E-01
  5.6850000000E+03  2.9337863512E+00  7.3578010208E+00  6.4560745867E-02  6.2632880217E-02  3.7326011692E-01
  5.6900000000E+03  2.9369046773E+00  7.3552516375E+00  6.4735912348E-02  6.2798969625E-02  3.7348909895E-01
  5.6950000000E+03  2.9400235746E+00  7.3527053757E+00  6.4911399328E-02  6.2965344314E-02  3.7371795189E-01
  5.7000000000E+03  2.9431430426E+00  7.3501622287E+00  6.5087207110E-02  6.3132004479E-02  3.7394667622E-01
  5.7050000000E+03  2.9462630083E+00  7.3476221901E+00  6.5263335998E-02  6.3298950281E-02  3.7417527239E-01
  5.7100000000E+03  2.9493835085E+00  7.3450852532E+00  6.5439786296E-02  6.3466181934E-02  3.7440374086E-01
  5.7150000000E+03  2.9525045781E+00  7.3425514116E+00  6.5616558306E-02  6.3633699647E-02  3.7463208209E-01
  5.7200000000E+03  2.9556262167E+00  7.3400206589E+00  6.5793652332E-02  6.3801503617E-02  3.7486029653E-01
  5.7250000000E+03  2.9587484239E+00  7.3374929885E+00  6.5971068678E-02  6.3969594037E-02  3.7508838463E-01
  5.7300000000E+03  2.9618711993E+00  7.3349683941E+00  6.6148807647E-02  6.4137971102E-02  3.7531634686E-01
  5.7350000000E+03  2.9649945426E+00  7.3324468691E+00  6.6326869544E-02  6.4306635006E-02  3.7554418367E-01
  5.7400000000E+03  2.9681184533E+00  7.3299284072E+00  6.6505254671E-02  6.4475585943E-02  3.7577189550E-01
  5.7450000000E+03  2.9712429311E+00  7.3274130021E+00  6.6683963332E-02  6.4644824106E-02  3.7599948281E-01
  5.7500000000E+03  2.9743679756E+00  7.3249006473E+00  6.6862995831E-02  6.4814349690E-02  3.7622694604E-01
  5.7550000000E+03  2.9774936299E+00  7.3223913364E+00  6.7042352471E-02  6.4984162907E-02  3.7645428565E-01
  5.7600000000E+03  2.9806201702E+00  7.3198850633E+00  6.7222033556E-02  6.5154264084E-02  3.7668150209E-01
  5.7650000000E+03  2.9837472764E+00  7.3173818215E+00  6.7402039390E-02  6.5324653260E-02  3.7690859579E-01
  5.7700000000E+03  2.9868749482E+00  7.3148816048E+00  6.7582370277E-02  6.5495330630E-02  3.7713556721E-01
  5.7750000000E+03  2.9900031852E+00  7.3124034190E+00  6.7763026520E-02  6.5666297918E-02  3.7736241679E-01
  5.7800000000E+03  2.9931319869E+00  7.3099529166E+00  6.7944008423E-02  6.5837555802E-02  3.7758914497E-01
  5.7850000000E+03  2.9962613531E+00  7.3075053532E+00  6.8125316290E-02  6.6009102492E-02  3.7781575221E-01
  5.7900000000E+03  2.9993912832E+00  7.3050607228E+00  6.8306950424E-02  6.6180938179E-02  3.7804223893E-01
  5.7950000000E+03  3.0025217770E+00  7.3026190193E+00  6.8488911129E-02  6.6353063055E-02  3.7826860557E-01
  5.8000000000E+03  3.0056528340E+00  7.3001802367E+00  6.8671198710E-02  6.6525477311E-02  3.7849485259E-01
  5.8050000000E+03  3.0087844538E+00  7.2977443690E+00  6.8853813470E-02  6.6698181138E-02  3.7872098042E-01
  5.8100000000E+03  3.0119167342E+00  7.2953114102E+00  6.9036755712E-02  6.6871174777E-02  3.7894698949E-01
  5.8150000000E+03  3.0150496867E+00  7.2928813543E+00  6.9220025741E-02  6.7044458423E-02  3.7917288024E-01
  5.8200000000E+03  3.0181832011E+00  7.2904541954E+00  6.9403623861E-02  6.7218032213E-02  3.7939865312E-01
  5.8250000000E+03  3.0213172771E+00  7.2880299276E+00  6.9587550375E-02  6.7391896338E-02  3.7962430854E-01
  5.8300000000E+03  3.0244519143E+00  7.2856085449E+00  6.9771805588E-02  6.7566050988E-02  3.7984984695E-01
  5.8350000000E+03  3.0275871123E+00  7.2831900414E+00  6.9956389803E-02  6.7740496352E-02  3.8007526879E-01
  5.8400000000E+03  3.0307228707E+00  7.2807744112E+00  7.0141303325E-02  6.7915232620E-02  3.8030057447E-01
  5.8450000000E+03  3.0338591892E+00  7.2783616485E+00  7.0326546457E-02  6.8090259982E-02  3.8052576444E-01
  5.8500000000E+03  3.0369960673E+00  7.2759517474E+00  7.0512119503E-02  6.8265578626E-02  3.8075083913E-01
  5.8550000000E+03  3.0401335048E+00  7.2735447021E+00  7.0698022768E-02  6.8441188741E-02  3.8097579895E-01
  5.8600000000E+03  3.0432715011E+00  7.2711405067E+00  7.0884256555E-02  6.8617090517E-02  3.8120064435E-01
  5.8650000000E+03  3.0464097115E+00  7.2687391555E+00  7.1070821169E-02  6.8793283965E-02  3.8142537575E-01
  5.8700000000E+03  3.0495483483E+00  7.2663759464E+00  7.1257716913E-02  6.8969772562E-02  3.8164999358E-01
  5.8750000000E+03  3.0526875423E+00  7.2640218488E+00  7.1444944092E-02  6.9146553988E-02  3.8187449826E-01
  5.8800000000E+03  3.0558272932E+00  7.2616705156E+00  7.1632503010E-02  6.9323627862E-02  3.8209889022E-01
  5.8850000000E+03  3.0589676004E+00  7.2593219411E+00  7.1820393970E-02  6.9500994373E-02  3.8232316988E-01
  5.8900000000E+03  3.0621084638E+00  7.2569761198E+00  7.2008617278E-02  6.9678653707E-02  3.8254733767E-01
  5.8950000000E+03  3.0652498829E+00  7.2546330461E+00  7.2197173237E-02  6.9856606052E-02  3.8277139400E-01
  5.9000000000E+03  3.0683918573E+00  7.2522927144E+00  7.2386062152E-02  7.0034851596E-02  3.8299533931E-01
  5.9050000000E+03  3.0715343867E+00  7.2499551192E+00  7.2575284326E-02  7.0213390524E-02  3.8321917400E-01
  5.9100000000E+03  3.0746774707E+00  7.2476202550E+00  7.2764840064E-02  7.0392223023E-02  3.8344289851E-01
  5.9150000000E+03  3.0778211089E+00  7.2452881164E+00  7.2954729670E-02  7.0571349280E-02  3.8366651324E-01
  5.9200000000E+03  3.0809668191E+00  7.2429586977E+00  7.3144953449E-02  7.0750770281E-02  3.8389001862E-01
  5.9250000000E+03  3.0841132997E+00  7.2406319937E+00  7.3335511704E-02  7.0930485532E-02  3.8411341507E-01
  5.9300000000E+03  3.0872603354E+00  7.2383079987E+00  7.3526404740E-02  7.1110495104E-02  3.8433670300E-01
  5.9350000000E+03  3.0904079260E+00  7.2359867075E+00  7.3717632862E-02  7.1290799184E-02  3.8455988283E-01
  5.9400000000E+03  3.0935560709E+00  7.2336681144E+00  7.3909196373E-02  7.1471397956E-02  3.8478295497E-01
  5.9450000000E+03  3.0967047700E+00  7.2313522143E+00  7.4101095578E-02  7.1652291606E-02  3.8500591984E-01
  5.9500000000E+03  3.0998540228E+00  7.2290390016E+00  7.4293330782E-02  7.1833480318E-02  3.8522877785E-01
  5.9550000000E+03  3.1030038289E+00  7.2267284710E+00  7.4485902288E-02  7.2014964276E-02  3.8545152942E-01
  5.9600000000E+03  3.1061541880E+00  7.2244206171E+00  7.4678810401E-02  7.2196743665E-02  3.8567417495E-01
  5.9650000000E+03  3.1093050996E+00  7.2221535525E+00  7.4872055427E-02  7.2378822497E-02  3.8589671486E-01
  5.9700000000E+03  3.1124565636E+00  7.2198906162E+00  7.5065637668E-02  7.2561197320E-02  3.8611914955E-01
  5.9750000000E+03  3.1156079425E+00  7.2176302825E+00  7.5259557429E-02  7.2743867816E-02  3.8634147944E-01
  5.9800000000E+03  3.1187598242E+00  7.2153725463E+00  7.5453815016E-02  7.2926834489E-02  3.8656370494E-01
  5.9850000000E+03  3.1219122562E+00  7.2131174024E+00  7.5648410732E-02  7.3110097548E-02  3.8678582645E-01
  5.9900000000E+03  3.1250652382E+00  7.2108648456E+00  7.5843344882E-02  7.3293657175E-02  3.8700784438E-01
  5.9950000000E+03  3.1282187698E+00  7.2086148709E+00  7.6038617771E-02  7.3477513554E-02  3.8722975914E-01
  6.0000000000E+03  3.1313728507E+00  7.2063674731E+00  7.6234229702E-02  7.3661666867E-02  3.8745157113E-01
  6.0050000000E+03  3.1345274804E+00  7.2041226471E+00  7.6431444265E-02  7.3847296601E-02  3.8767328077E-01
  6.0100000000E+03  3.1376826586E+00  7.2018803880E+00  7.6629003955E-02  7.4033228431E-02  3.8789488844E-01
  6.0150000000E+03  3.1408383850E+00  7.1996406905E+00  7.6826909089E-02  7.4219462546E-02  3.8811639457E-01
  6.0200000000E+03  3.1439946592E+00  7.1974035496E+00  7.7025159982E-02  7.4405999134E-02  3.8833779954E-01
  6.0250000000E+03  3.1471514808E+00  7.1951689603E+00  7.7223756949E-02  7.4592838386E-02  3.8855910377E-01
  6.0300000000E+03  3.1503139582E+00  7.1929369176E+00  7.7422700305E-02  7.4779983367E-02  3.8878030765E-01
  6.0350000000E+03  3.1534776854E+00  7.1907074165E+00  7.7621990367E-02  7.4967431803E-02  3.8900141158E-01
  6.0400000000E+03  3.1566419657E+00  7.1884804520E+00  7.7821627449E-02  7.5155183490E-02  3.8922241598E-01
  6.0450000000E+03  3.1598067989E+00  7.1862560190E+00  7.8021611866E-02  7.5343238616E-02  3.8944332122E-01
  6.0500000000E+03  3.1629721846E+00  7.1840341127E+00  7.8221943936E-02  7.5531597369E-02  3.8966412772E-01
  6.0550000000E+03  3.1661381223E+00  7.1818147280E+00  7.8422623972E-02  7.5720259936E-02  3.8988483588E-01
  6.0600000000E+03  3.1693046118E+00  7.1796269852E+00  7.8623652291E-02  7.5909229760E-02  3.9010544608E-01
  6.0650000000E+03  3.1724716527E+00  7.1774503336E+00  7.8825029208E-02  7.6098504774E-02  3.9032595873E-01
  6.0700000000E+03  3.1756392446E+00  7.1752761349E+00  7.9026755039E-02  7.6288084204E-02  3.9054637422E-01
  6.0750000000E+03  3.1788073872E+00  7.1731043841E+00  7.9228830099E-02  7.6477968237E-02  3.9076669295E-01
  6.0800000000E+03  3.1819760801E+00  7.1709350766E+00  7.9431254703E-02  7.6668157059E-02  3.9098691531E-01
  6.0850000000E+03  3.1851735031E+00  7.1687682075E+00  7.9634029169E-02  7.6858667266E-02  3.9120704170E-01
  6.0900000000E+03  3.1883819380E+00  7.1666037722E+00  7.9837153811E-02  7.7049488841E-02  3.9142707251E-01
  6.0950000000E+03  3.1915909677E+00  7.1644417658E+00  8.0040628944E-02  7.7240615923E-02  3.9164700814E-01
  6.1000000000E+03  3.1948005918E+00  7.1622821838E+00  8.0244454886E-02  7.7432048699E-02  3.9186684897E-01
  6.1050000000E+03  3.1980108099E+00  7.1601250214E+00  8.0448631951E-02  7.7623787355E-02  3.9208659540E-01
  6.1100000000E+03  3.2012216217E+00  7.1579702738E+00  8.0653160455E-02  7.7815832076E-02  3.9230624782E-01
  6.1150000000E+03  3.2044330267E+00  7.1558179365E+00  8.0858040714E-02  7.8008183046E-02  3.9252580662E-01
  6.1200000000E+03  3.2076450247E+00  7.1536680047E+00  8.1063273044E-02  7.8200840452E-02  3.9274527219E-01
  6.1250000000E+03  3.2108576152E+00  7.1515204739E+00  8.1268857761E-02  7.8393804479E-02  3.9296464491E-01
  6.1300000000E+03  3.2140707978E+00  7.1493753393E+00  8.1474795181E-02  7.8587075309E-02  3.9318392519E-01
  6.1350000000E+03  3.2172845722E+00  7.1472325963E+00  8.1681085619E-02  7.8780653129E-02  3.9340311340E-01
  6.1400000000E+03  3.2204991944E+00  7.1450922404E+00  8.1887729392E-02  7.8974538276E-02  3.9362220993E-01
  6.1450000000E+03  3.2237146905E+00  7.1429542670E+00  8.2094726815E-02  7.9168730952E-02  3.9384121517E-01
  6.1500000000E+03  3.2269307778E+00  7.1408186713E+00  8.2302078205E-02  7.9363231170E-02  3.9406012951E-01
  6.1550000000E+03  3.2301474561E+00  7.1386952459E+00  8.2509783876E-02  7.9558040330E-02  3.9427895333E-01
  6.1600000000E+03  3.2333647249E+00  7.1366003327E+00  8.2717844147E-02  7.9753160679E-02  3.9449768702E-01
  6.1650000000E+03  3.2365825839E+00  7.1345077333E+00  8.2926259331E-02  7.9948589162E-02  3.9471633096E-01
  6.1700000000E+03  3.2398010327E+00  7.1324174432E+00  8.3135029747E-02  8.0144325962E-02  3.9493488559E-01
  6.1750000000E+03  3.2430200709E+00  7.1303294580E+00  8.3344155709E-02  8.0340371264E-02  3.9515335129E-01
  6.1800000000E+03  3.2462396983E+00  7.1282437733E+00  8.3553637533E-02  8.0536725247E-02  3.9537172842E-01
  6.1850000000E+03  3.2494599143E+00  7.1261603847E+00  8.3763475537E-02  8.0733388096E-02  3.9559001731E-01
  6.1900000000E+03  3.2526807186E+00  7.1240792878E+00  8.3973670035E-02  8.0930359991E-02  3.9580821832E-01
  6.1950000000E+03  3.2559020931E+00  7.1220004783E+00  8.4184221345E-02  8.1127641103E-02  3.9602633177E-01
  6.2000000000E+03  3.2591239211E+00  7.1199239518E+00  8.4395129782E-02  8.1325231540E-02  3.9624435802E-01
  6.2050000000E+03  3.2623463363E+00  7.1178497040E+00  8.4606395663E-02  8.1523131568E-02  3.9646229740E-01
  6.2100000000E+03  3.2655693381E+00  7.1157777304E+00  8.4818019303E-02  8.1721341366E-02  3.9668015027E-01
  6.2150000000E+03  3.2687929263E+00  7.1137080269E+00  8.5030001020E-02  8.1919861114E-02  3.9689791695E-01
  6.2200000000E+03  3.2720171004E+00  7.1116405891E+00  8.5242341130E-02  8.2118690995E-02  3.9711559779E-01
  6.2250000000E+03  3.2752418601E+00  7.1095754126E+00  8.5455039948E-02  8.2317831186E-02  3.9733319313E-01
  6.2300000000E+03  3.2784672050E+00  7.1075124932E+00  8.5668097791E-02  8.2517281869E-02  3.9755070332E-01
  6.2350000000E+03  3.2816931348E+00  7.1054518267E+00  8.5881514976E-02  8.2717043222E-02  3.9776812867E-01
  6.2400000000E+03  3.2849196491E+00  7.1033934087E+00  8.6095291818E-02  8.2917115425E-02  3.9798546955E-01
  6.2450000000E+03  3.2881467475E+00  7.1013372351E+00  8.6309428635E-02  8.3117498657E-02  3.9820272628E-01
  6.2500000000E+03  3.2913744297E+00  7.0992833015E+00  8.6523925743E-02  8.3318193096E-02  3.9841989920E-01
  6.2550000000E+03  3.2946024495E+00  7.0972473297E+00  8.6738783458E-02  8.3519200941E-02  3.9863698864E-01
  6.2600000000E+03  3.2978309219E+00  7.0952320681E+00  8.6954002097E-02  8.3720522862E-02  3.9885399495E-01
  6.2650000000E+03  3.3010599766E+00  7.0932189869E+00  8.7169581976E-02  8.3922156569E-02  3.9907091846E-01
  6.2700000000E+03  3.3042896132E+00  7.0912080823E+00  8.7385523411E-02  8.4124102238E-02  3.9928775951E-01
  6.2750000000E+03  3.3075198313E+00  7.0891993499E+00  8.7601826720E-02  8.4326360049E-02  3.9950451842E-01
  6.2800000000E+03  3.3107506307E+00  7.0871927859E+00  8.7818492219E-02  8.4528930179E-02  3.9972119554E-01
  6.2850000000E+03  3.3139820108E+00  7.0851883861E+00  8.8035520224E-02  8.4731812804E-02  3.9993779119E-01
  6.2900000000E+03  3.3172139714E+00  7.0831861464E+00  8.8252911053E-02  8.4935008102E-02  4.0015430572E-01
  6.2950000000E+03  3.3204465121E+00  7.0811860628E+00  8.8470665021E-02  8.5138516250E-02  4.0037073944E-01
  6.3000000000E+03  3.3236796326E+00  7.0791881314E+00  8.8688782446E-02  8.5342337423E-02  4.0058709271E-01
  6.3050000000E+03  3.3269133324E+00  7.0771923480E+00  8.8907263644E-02  8.5546471799E-02  4.0080336583E-01
  6.3100000000E+03  3.3301475873E+00  7.0751987087E+00  8.9126108931E-02  8.5750919536E-02  4.0101955916E-01
  6.3150000000E+03  3.3333821654E+00  7.0732072094E+00  8.9345318625E-02  8.5955680657E-02  4.0123567302E-01
  6.3200000000E+03  3.3366173215E+00  7.0712178462E+00  8.9564893043E-02  8.6160755505E-02  4.0145170773E-01
  6.3250000000E+03  3.3398530553E+00  7.0692306151E+00  8.9784832501E-02  8.6366144256E-02  4.0166766364E-01
  6.3300000000E+03  3.3430893664E+00  7.0672455122E+00  9.0005137315E-02  8.6571847085E-02  4.0188354106E-01
  6.3350000000E+03  3.3463262545E+00  7.0652625333E+00  9.0225807803E-02  8.6777864166E-02  4.0209934033E-01
  6.3400000000E+03  3.3495637191E+00  7.0632816748E+00  9.0446844282E-02  8.6984195673E-02  4.0231506177E-01
  6.3450000000E+03  3.3528017600E+00  7.0613029325E+00  9.0668247069E-02  8.7190841781E-02  4.0253070572E-01
  6.3500000000E+03  3.3560403767E+00  7.0593263025E+00  9.0890016480E-02  8.7397802663E-02  4.0274627250E-01
