#[MATERIAL DEFINITION FOR MC-GPU: interaction mean free path and sampling data from PENELOPE 2018]
#[MATERIAL NAME]
# femora_lower                                                  
#[NOMINAL DENSITY (g/cm^3)]
#   1.11700000
#[NUMBER OF DATA VALUES]
#  23002
#[MEAN FREE PATHS (cm) (ie, average distance between interactions)]
#[Energy (eV)     | Rayleigh        | Compton         | Photoelectric   | TOTAL (+pair prod) (cm) | Rayleigh: max cumul prob F^2]
  5.0000000000E+03  1.7123010935E+00  7.3002625469E+00  1.4982519898E-02  1.4822404443E-02  3.0464750088E-01
  5.0050000000E+03  1.7140358824E+00  7.2966086830E+00  1.5024682049E-02  1.4863784443E-02  3.0489940953E-01
  5.0100000000E+03  1.7157706940E+00  7.2929602936E+00  1.5066919823E-02  1.4905236999E-02  3.0515113018E-01
  5.0150000000E+03  1.7175055685E+00  7.2893173649E+00  1.5109233277E-02  1.4946762161E-02  3.0540266332E-01
  5.0200000000E+03  1.7192404896E+00  7.2856798835E+00  1.5151622469E-02  1.4988359978E-02  3.0565400942E-01
  5.0250000000E+03  1.7209754336E+00  7.2820478357E+00  1.5194087456E-02  1.5030030497E-02  3.0590516897E-01
  5.0300000000E+03  1.7227104002E+00  7.2784212080E+00  1.5236628297E-02  1.5071773765E-02  3.0615614243E-01
  5.0350000000E+03  1.7244453895E+00  7.2747999870E+00  1.5279245050E-02  1.5113589833E-02  3.0640693028E-01
  5.0400000000E+03  1.7261804016E+00  7.2711841592E+00  1.5321937772E-02  1.5155478747E-02  3.0665753300E-01
  5.0450000000E+03  1.7279154363E+00  7.2675737113E+00  1.5364706521E-02  1.5197440557E-02  3.0690795106E-01
  5.0500000000E+03  1.7296504936E+00  7.2639686299E+00  1.5407551355E-02  1.5239475312E-02  3.0715818492E-01
  5.0550000000E+03  1.7313855735E+00  7.2603689018E+00  1.5450472331E-02  1.5281583059E-02  3.0740823506E-01
  5.0600000000E+03  1.7331323537E+00  7.2567745138E+00  1.5493469508E-02  1.5323764760E-02  3.0765810195E-01
  5.0650000000E+03  1.7349008669E+00  7.2531854526E+00  1.5536542943E-02  1.5366021260E-02  3.0790778605E-01
  5.0700000000E+03  1.7366694371E+00  7.2496017051E+00  1.5579692693E-02  1.5408350919E-02  3.0815728783E-01
  5.0750000000E+03  1.7384380643E+00  7.2460232582E+00  1.5622918817E-02  1.5450753786E-02  3.0840660776E-01
  5.0800000000E+03  1.7402067483E+00  7.2424500989E+00  1.5666221372E-02  1.5493229908E-02  3.0865574629E-01
  5.0850000000E+03  1.7419754891E+00  7.2389390299E+00  1.5709600415E-02  1.5535779595E-02  3.0890470389E-01
  5.0900000000E+03  1.7437442868E+00  7.2354386206E+00  1.5753056005E-02  1.5578402664E-02  3.0915348102E-01
  5.0950000000E+03  1.7455131411E+00  7.2319433384E+00  1.5796588199E-02  1.5621099136E-02  3.0940207815E-01
  5.1000000000E+03  1.7472820521E+00  7.2284531706E+00  1.5840197054E-02  1.5663869059E-02  3.0965049572E-01
  5.1050000000E+03  1.7490510197E+00  7.2249681047E+00  1.5883882629E-02  1.5706712483E-02  3.0989873420E-01
  5.1100000000E+03  1.7508268113E+00  7.2214881284E+00  1.5927644980E-02  1.5749630003E-02  3.1014679404E-01
  5.1150000000E+03  1.7526027348E+00  7.2180132291E+00  1.5971484166E-02  1.5792621130E-02  3.1039467570E-01
  5.1200000000E+03  1.7543787219E+00  7.2145433946E+00  1.6015400243E-02  1.5835685905E-02  3.1064237963E-01
  5.1250000000E+03  1.7561547726E+00  7.2110786126E+00  1.6059393269E-02  1.5878824377E-02  3.1088990629E-01
  5.1300000000E+03  1.7579308867E+00  7.2076188706E+00  1.6103463303E-02  1.5922036595E-02  3.1113725612E-01
  5.1350000000E+03  1.7597070642E+00  7.2041641567E+00  1.6147610400E-02  1.5965322605E-02  3.1138442958E-01
  5.1400000000E+03  1.7614833051E+00  7.2007144584E+00  1.6191834620E-02  1.6008682457E-02  3.1163142710E-01
  5.1450000000E+03  1.7632596093E+00  7.1972697637E+00  1.6236136018E-02  1.6052116198E-02  3.1187824904E-01
  5.1500000000E+03  1.7650359767E+00  7.1938300605E+00  1.6280514653E-02  1.6095623875E-02  3.1212489587E-01
  5.1550000000E+03  1.7668145773E+00  7.1903953367E+00  1.6324970583E-02  1.6139205719E-02  3.1237136804E-01
  5.1600000000E+03  1.7685950778E+00  7.1869655803E+00  1.6369503863E-02  1.6182861750E-02  3.1261766603E-01
  5.1650000000E+03  1.7703756455E+00  7.1835739994E+00  1.6414114553E-02  1.6226592033E-02  3.1286379028E-01
  5.1700000000E+03  1.7721562804E+00  7.1802140300E+00  1.6458802708E-02  1.6270396587E-02  3.1310974126E-01
  5.1750000000E+03  1.7739369824E+00  7.1768588777E+00  1.6503568387E-02  1.6314275323E-02  3.1335551942E-01
  5.1800000000E+03  1.7757177515E+00  7.1735085310E+00  1.6548411647E-02  1.6358228288E-02  3.1360112523E-01
  5.1850000000E+03  1.7774985875E+00  7.1701629785E+00  1.6593332545E-02  1.6402255530E-02  3.1384655914E-01
  5.1900000000E+03  1.7792794905E+00  7.1668222087E+00  1.6638331139E-02  1.6446357098E-02  3.1409182160E-01
  5.1950000000E+03  1.7810604603E+00  7.1634862100E+00  1.6683407485E-02  1.6490533038E-02  3.1433691306E-01
  5.2000000000E+03  1.7828414992E+00  7.1601549712E+00  1.6728561641E-02  1.6534783398E-02  3.1458183399E-01
  5.2050000000E+03  1.7846228893E+00  7.1568284809E+00  1.6773793665E-02  1.6579108251E-02  3.1482658482E-01
  5.2100000000E+03  1.7864043463E+00  7.1535067277E+00  1.6819103613E-02  1.6623507619E-02  3.1507116600E-01
  5.2150000000E+03  1.7881858702E+00  7.1501897004E+00  1.6864491543E-02  1.6667981550E-02  3.1531557800E-01
  5.2200000000E+03  1.7899674609E+00  7.1468773877E+00  1.6909957511E-02  1.6712530092E-02  3.1555982125E-01
  5.2250000000E+03  1.7917491185E+00  7.1435697785E+00  1.6955501576E-02  1.6757153291E-02  3.1580389619E-01
  5.2300000000E+03  1.7935308427E+00  7.1402668614E+00  1.7001123794E-02  1.6801851195E-02  3.1604780328E-01
  5.2350000000E+03  1.7953126336E+00  7.1369686255E+00  1.7046824223E-02  1.6846623852E-02  3.1629154296E-01
  5.2400000000E+03  1.7970944912E+00  7.1336750596E+00  1.7092602919E-02  1.6891471309E-02  3.1653511567E-01
  5.2450000000E+03  1.7988764152E+00  7.1303861527E+00  1.7138512102E-02  1.6936444552E-02  3.1677852185E-01
  5.2500000000E+03  1.8006612172E+00  7.1271556912E+00  1.7184719964E-02  1.6981708363E-02  3.1702176194E-01
  5.2550000000E+03  1.8024505628E+00  7.1239336320E+00  1.7231007574E-02  1.7027048796E-02  3.1726483638E-01
  5.2600000000E+03  1.8042399822E+00  7.1207160916E+00  1.7277374994E-02  1.7072465483E-02  3.1750774560E-01
  5.2650000000E+03  1.8060294755E+00  7.1175030593E+00  1.7323822283E-02  1.7117958474E-02  3.1775049006E-01
  5.2700000000E+03  1.8078190424E+00  7.1142945247E+00  1.7370349500E-02  1.7163527818E-02  3.1799307017E-01
  5.2750000000E+03  1.8096086831E+00  7.1110904771E+00  1.7416956705E-02  1.7209173565E-02  3.1823548638E-01
  5.2800000000E+03  1.8113983973E+00  7.1078909060E+00  1.7463643958E-02  1.7254895764E-02  3.1847773912E-01
  5.2850000000E+03  1.8131881850E+00  7.1046958010E+00  1.7510411319E-02  1.7300694465E-02  3.1871982882E-01
  5.2900000000E+03  1.8149780462E+00  7.1015051515E+00  1.7557258848E-02  1.7346569717E-02  3.1896175591E-01
  5.2950000000E+03  1.8167679808E+00  7.0983189473E+00  1.7604186603E-02  1.7392521570E-02  3.1920352082E-01
  5.3000000000E+03  1.8185741123E+00  7.0951371778E+00  1.7651194646E-02  1.7438551555E-02  3.1944512399E-01
  5.3050000000E+03  1.8203881365E+00  7.0919598327E+00  1.7698283034E-02  1.7484658970E-02  3.1968656584E-01
  5.3100000000E+03  1.8222022587E+00  7.0887869018E+00  1.7745451829E-02  1.7530843151E-02  3.1992784679E-01
  5.3150000000E+03  1.8240164788E+00  7.0856183748E+00  1.7792701090E-02  1.7577104147E-02  3.2016896727E-01
  5.3200000000E+03  1.8258307967E+00  7.0824542413E+00  1.7840030876E-02  1.7623442006E-02  3.2040992772E-01
  5.3250000000E+03  1.8276452124E+00  7.0792944912E+00  1.7887441246E-02  1.7669856779E-02  3.2065072854E-01
  5.3300000000E+03  1.8294597258E+00  7.0761415761E+00  1.7934932261E-02  1.7716348529E-02  3.2089137016E-01
  5.3350000000E+03  1.8312743367E+00  7.0730460142E+00  1.7982503981E-02  1.7762917625E-02  3.2113185302E-01
  5.3400000000E+03  1.8330890451E+00  7.0699547044E+00  1.8030156464E-02  1.7809563786E-02  3.2137217752E-01
  5.3450000000E+03  1.8349038509E+00  7.0668676368E+00  1.8077889770E-02  1.7856287060E-02  3.2161234408E-01
  5.3500000000E+03  1.8367248503E+00  7.0637848018E+00  1.8125703958E-02  1.7903088077E-02  3.2185235313E-01
  5.3550000000E+03  1.8385468486E+00  7.0607061896E+00  1.8173599089E-02  1.7949966394E-02  3.2209220508E-01
  5.3600000000E+03  1.8403689514E+00  7.0576317905E+00  1.8221575222E-02  1.7996921977E-02  3.2233190034E-01
  5.3650000000E+03  1.8421911585E+00  7.0545615947E+00  1.8269632416E-02  1.8043954875E-02  3.2257143935E-01
  5.3700000000E+03  1.8440134699E+00  7.0514955926E+00  1.8317770730E-02  1.8091065137E-02  3.2281082250E-01
  5.3750000000E+03  1.8458358854E+00  7.0484337746E+00  1.8365990224E-02  1.8138252811E-02  3.2305005021E-01
  5.3800000000E+03  1.8476584050E+00  7.0453761311E+00  1.8414290958E-02  1.8185517947E-02  3.2328912289E-01
  5.3850000000E+03  1.8494810286E+00  7.0423226525E+00  1.8462672991E-02  1.8232860593E-02  3.2352804096E-01
  5.3900000000E+03  1.8513037561E+00  7.0392733293E+00  1.8511136382E-02  1.8280280798E-02  3.2376680483E-01
  5.3950000000E+03  1.8531265874E+00  7.0362281520E+00  1.8559681191E-02  1.8327778612E-02  3.2400541490E-01
  5.4000000000E+03  1.8549496935E+00  7.0331871112E+00  1.8608307477E-02  1.8375354098E-02  3.2424387159E-01
  5.4050000000E+03  1.8567729072E+00  7.0301501973E+00  1.8657015299E-02  1.8423007291E-02  3.2448217530E-01
  5.4100000000E+03  1.8585962246E+00  7.0271174010E+00  1.8705804718E-02  1.8470738239E-02  3.2472032644E-01
  5.4150000000E+03  1.8604196457E+00  7.0240887129E+00  1.8754675791E-02  1.8518546989E-02  3.2495832541E-01
  5.4200000000E+03  1.8622431702E+00  7.0211112661E+00  1.8803628579E-02  1.8566433920E-02  3.2519617262E-01
  5.4250000000E+03  1.8640667983E+00  7.0181440108E+00  1.8852663140E-02  1.8614398799E-02  3.2543386847E-01
  5.4300000000E+03  1.8658905296E+00  7.0151807414E+00  1.8901779535E-02  1.8662441630E-02  3.2567141337E-01
  5.4350000000E+03  1.8677143643E+00  7.0122214487E+00  1.8950977822E-02  1.8710562462E-02  3.2590880772E-01
  5.4400000000E+03  1.8695383021E+00  7.0092661239E+00  1.9000258061E-02  1.8758761344E-02  3.2614605191E-01
  5.4450000000E+03  1.8713623431E+00  7.0063147579E+00  1.9049620310E-02  1.8807038324E-02  3.2638314636E-01
  5.4500000000E+03  1.8732222185E+00  7.0033673418E+00  1.9099064629E-02  1.8855397070E-02  3.2662009145E-01
  5.4550000000E+03  1.8750824502E+00  7.0004238668E+00  1.9148591078E-02  1.8903834061E-02  3.2685688758E-01
  5.4600000000E+03  1.8769428223E+00  6.9974843240E+00  1.9198199715E-02  1.8952349321E-02  3.2709353516E-01
  5.4650000000E+03  1.8788033349E+00  6.9945487044E+00  1.9247890600E-02  1.9000942900E-02  3.2733003457E-01
  5.4700000000E+03  1.8806639877E+00  6.9916169993E+00  1.9297663792E-02  1.9049614847E-02  3.2756638622E-01
  5.4750000000E+03  1.8825247807E+00  6.9886891999E+00  1.9347519350E-02  1.9098365209E-02  3.2780259050E-01
  5.4800000000E+03  1.8843857137E+00  6.9857652975E+00  1.9397457333E-02  1.9147194034E-02  3.2803864780E-01
  5.4850000000E+03  1.8862467866E+00  6.9828452832E+00  1.9447477800E-02  1.9196101372E-02  3.2827455852E-01
  5.4900000000E+03  1.8881079993E+00  6.9799291484E+00  1.9497580810E-02  1.9245087270E-02  3.2851032304E-01
  5.4950000000E+03  1.8899693517E+00  6.9770168845E+00  1.9547766423E-02  1.9294151777E-02  3.2874594176E-01
  5.5000000000E+03  1.8918315665E+00  6.9741084827E+00  1.9598034698E-02  1.9343295016E-02  3.2898141507E-01
  5.5050000000E+03  1.8936939862E+00  6.9712268573E+00  1.9648607793E-02  1.9392733498E-02  3.2921674336E-01
  5.5100000000E+03  1.8955565460E+00  6.9683773458E+00  1.9699264589E-02  1.9442251832E-02  3.2945192701E-01
  5.5150000000E+03  1.8974192459E+00  6.9655315820E+00  1.9750005148E-02  1.9491849849E-02  3.2968696641E-01
  5.5200000000E+03  1.8992820858E+00  6.9626895577E+00  1.9800829528E-02  1.9541527599E-02  3.2992186195E-01
  5.5250000000E+03  1.9011450654E+00  6.9598512645E+00  1.9851737792E-02  1.9591285132E-02  3.3015661402E-01
  5.5300000000E+03  1.9030081847E+00  6.9570166941E+00  1.9902729999E-02  1.9641122496E-02  3.3039122300E-01
  5.5350000000E+03  1.9048714437E+00  6.9541858384E+00  1.9953806210E-02  1.9691039741E-02  3.3062568927E-01
  5.5400000000E+03  1.9067348420E+00  6.9513586891E+00  2.0004966486E-02  1.9741036916E-02  3.3086001321E-01
  5.5450000000E+03  1.9085983798E+00  6.9485352381E+00  2.0056210886E-02  1.9791114071E-02  3.3109419522E-01
  5.5500000000E+03  1.9104719743E+00  6.9457154770E+00  2.0107539473E-02  1.9841272324E-02  3.3132823566E-01
  5.5550000000E+03  1.9123490613E+00  6.9428993979E+00  2.0158952305E-02  1.9891511024E-02  3.3156213493E-01
  5.5600000000E+03  1.9142263013E+00  6.9400869926E+00  2.0210449444E-02  1.9941829861E-02  3.3179589340E-01
  5.5650000000E+03  1.9161036942E+00  6.9372782530E+00  2.0262030949E-02  1.9992228885E-02  3.3202951145E-01
  5.5700000000E+03  1.9179812399E+00  6.9344731711E+00  2.0313696882E-02  2.0042708144E-02  3.3226298945E-01
  5.5750000000E+03  1.9198589382E+00  6.9316717387E+00  2.0365447303E-02  2.0093267688E-02  3.3249632779E-01
  5.5800000000E+03  1.9217367891E+00  6.9288739480E+00  2.0417282271E-02  2.0143907566E-02  3.3272952685E-01
  5.5850000000E+03  1.9236147923E+00  6.9260797908E+00  2.0469201849E-02  2.0194627826E-02  3.3296258699E-01
  5.5900000000E+03  1.9254929477E+00  6.9232892593E+00  2.0521206095E-02  2.0245428517E-02  3.3319550859E-01
  5.5950000000E+03  1.9273712553E+00  6.9205381539E+00  2.0573295070E-02  2.0296309997E-02  3.3342829203E-01
  5.6000000000E+03  1.9292575593E+00  6.9178038427E+00  2.0625468835E-02  2.0347272997E-02  3.3366093768E-01
  5.6050000000E+03  1.9311523908E+00  6.9150730506E+00  2.0677727450E-02  2.0398317519E-02  3.3389344591E-01
  5.6100000000E+03  1.9330473912E+00  6.9123457700E+00  2.0730070976E-02  2.0449442685E-02  3.3412581710E-01
  5.6150000000E+03  1.9349425606E+00  6.9096219932E+00  2.0782499471E-02  2.0500648544E-02  3.3435805161E-01
  5.6200000000E+03  1.9368378986E+00  6.9069017127E+00  2.0835012998E-02  2.0551935145E-02  3.3459014982E-01
  5.6250000000E+03  1.9387334052E+00  6.9041849208E+00  2.0887611616E-02  2.0603302536E-02  3.3482211209E-01
  5.6300000000E+03  1.9406290802E+00  6.9014716100E+00  2.0940295385E-02  2.0654750768E-02  3.3505393884E-01
  5.6350000000E+03  1.9425249236E+00  6.8987617727E+00  2.0993064366E-02  2.0706279887E-02  3.3528563070E-01
  5.6400000000E+03  1.9444209351E+00  6.8960554014E+00  2.1045918618E-02  2.0757889943E-02  3.3551718808E-01
  5.6450000000E+03  1.9463171147E+00  6.8933524886E+00  2.1098858203E-02  2.0809580984E-02  3.3574861135E-01
  5.6500000000E+03  1.9482134948E+00  6.8906530268E+00  2.1151883180E-02  2.0861353063E-02  3.3597990088E-01
  5.6550000000E+03  1.9501102697E+00  6.8879570086E+00  2.1204993609E-02  2.0913206251E-02  3.3621105707E-01
  5.6600000000E+03  1.9520072124E+00  6.8852644265E+00  2.1258189552E-02  2.0965140570E-02  3.3644208028E-01
  5.6650000000E+03  1.9539043230E+00  6.8825752731E+00  2.1311471067E-02  2.1017156069E-02  3.3667297088E-01
  5.6700000000E+03  1.9558016011E+00  6.8798895411E+00  2.1364838215E-02  2.1069252796E-02  3.3690372926E-01
  5.6750000000E+03  1.9576990468E+00  6.8772072230E+00  2.1418291056E-02  2.1121430800E-02  3.3713435579E-01
  5.6800000000E+03  1.9595966599E+00  6.8745283116E+00  2.1471829650E-02  2.1173690129E-02  3.3736485083E-01
  5.6850000000E+03  1.9614944402E+00  6.8718869266E+00  2.1525454058E-02  2.1226031158E-02  3.3759521476E-01
  5.6900000000E+03  1.9633923876E+00  6.8692616695E+00  2.1579164339E-02  2.1278453733E-02  3.3782544796E-01
  5.6950000000E+03  1.9652905020E+00  6.8666397199E+00  2.1632960554E-02  2.1330957784E-02  3.3805555079E-01
  5.7000000000E+03  1.9671887833E+00  6.8640210707E+00  2.1686842763E-02  2.1383543357E-02  3.3828552362E-01
  5.7050000000E+03  1.9690871453E+00  6.8614057149E+00  2.1740811025E-02  2.1436210491E-02  3.3851536682E-01
  5.7100000000E+03  1.9709856319E+00  6.8587936454E+00  2.1794865401E-02  2.1488959238E-02  3.3874508075E-01
  5.7150000000E+03  1.9728842848E+00  6.8561848554E+00  2.1849005950E-02  2.1541789654E-02  3.3897466579E-01
  5.7200000000E+03  1.9747831039E+00  6.8535793376E+00  2.1903232734E-02  2.1594701784E-02  3.3920412230E-01
  5.7250000000E+03  1.9766820890E+00  6.8509770854E+00  2.1957545811E-02  2.1647695678E-02  3.3943345065E-01
  5.7300000000E+03  1.9785812401E+00  6.8483780916E+00  2.2011945242E-02  2.1700771384E-02  3.3966265119E-01
  5.7350000000E+03  1.9804805570E+00  6.8457823493E+00  2.2066431087E-02  2.1753928949E-02  3.3989172430E-01
  5.7400000000E+03  1.9823800395E+00  6.8431898517E+00  2.2121003405E-02  2.1807168421E-02  3.4012067033E-01
  5.7450000000E+03  1.9842796876E+00  6.8406005919E+00  2.2175662257E-02  2.1860489849E-02  3.4034948966E-01
  5.7500000000E+03  1.9861795011E+00  6.8380145631E+00  2.2230407703E-02  2.1913893281E-02  3.4057818263E-01
  5.7550000000E+03  1.9880800248E+00  6.8354317583E+00  2.2285239802E-02  2.1967378830E-02  3.4080674961E-01
  5.7600000000E+03  1.9899847127E+00  6.8328521708E+00  2.2340158615E-02  2.2020946968E-02  3.4103519096E-01
  5.7650000000E+03  1.9918895704E+00  6.8302757938E+00  2.2395164201E-02  2.2074597258E-02  3.4126350705E-01
  5.7700000000E+03  1.9937945977E+00  6.8277026205E+00  2.2450256620E-02  2.2128329746E-02  3.4149169821E-01
  5.7750000000E+03  1.9956997945E+00  6.8251521570E+00  2.2505435933E-02  2.2182144686E-02  3.4171976482E-01
  5.7800000000E+03  1.9976051606E+00  6.8226302019E+00  2.2560702198E-02  2.2236042192E-02  3.4194770724E-01
  5.7850000000E+03  1.9995106960E+00  6.8201113581E+00  2.2616055476E-02  2.2290022044E-02  3.4217552581E-01
  5.7900000000E+03  2.0014164005E+00  6.8175956192E+00  2.2671495827E-02  2.2344084290E-02  3.4240322089E-01
  5.7950000000E+03  2.0033222740E+00  6.8150829787E+00  2.2727023310E-02  2.2398228978E-02  3.4263079283E-01
  5.8000000000E+03  2.0052283163E+00  6.8125734299E+00  2.2782637986E-02  2.2452456155E-02  3.4285824200E-01
  5.8050000000E+03  2.0071345273E+00  6.8100669666E+00  2.2838339913E-02  2.2506765869E-02  3.4308556874E-01
  5.8100000000E+03  2.0090408007E+00  6.8075635822E+00  2.2894129152E-02  2.2561158153E-02  3.4331277341E-01
  5.8150000000E+03  2.0109471237E+00  6.8050632703E+00  2.2950005763E-02  2.2615633055E-02  3.4353985635E-01
  5.8200000000E+03  2.0128536147E+00  6.8025660245E+00  2.3005969805E-02  2.2670190636E-02  3.4376681792E-01
  5.8250000000E+03  2.0147602737E+00  6.8000718384E+00  2.3062021339E-02  2.2724830943E-02  3.4399365846E-01
  5.8300000000E+03  2.0166671006E+00  6.7975807056E+00  2.3118160423E-02  2.2779554024E-02  3.4422037833E-01
  5.8350000000E+03  2.0185740951E+00  6.7950926198E+00  2.3174387117E-02  2.2834359927E-02  3.4444697788E-01
  5.8400000000E+03  2.0204812572E+00  6.7926075747E+00  2.3230701482E-02  2.2889248698E-02  3.4467345745E-01
  5.8450000000E+03  2.0223885868E+00  6.7901255640E+00  2.3287103577E-02  2.2944220385E-02  3.4489981738E-01
  5.8500000000E+03  2.0242960836E+00  6.7876465812E+00  2.3343593461E-02  2.2999275035E-02  3.4512605804E-01
  5.8550000000E+03  2.0262037477E+00  6.7851706203E+00  2.3400171194E-02  2.3054412695E-02  3.4535217976E-01
  5.8600000000E+03  2.0281115788E+00  6.7826976748E+00  2.3456836837E-02  2.3109633414E-02  3.4557818288E-01
  5.8650000000E+03  2.0300190334E+00  6.7802277387E+00  2.3513590447E-02  2.3164937165E-02  3.4580406775E-01
  5.8700000000E+03  2.0319264471E+00  6.7777971643E+00  2.3570432086E-02  2.3220324468E-02  3.4602983472E-01
  5.8750000000E+03  2.0338340267E+00  6.7753760507E+00  2.3627361813E-02  2.3275795051E-02  3.4625548413E-01
  5.8800000000E+03  2.0357417720E+00  6.7729578605E+00  2.3684379687E-02  2.3331348883E-02  3.4648101632E-01
  5.8850000000E+03  2.0376496830E+00  6.7705425877E+00  2.3741485768E-02  2.3386986012E-02  3.4670643163E-01
  5.8900000000E+03  2.0395577595E+00  6.7681302263E+00  2.3798680115E-02  2.3442706485E-02  3.4693173040E-01
  5.8950000000E+03  2.0414660015E+00  6.7657207703E+00  2.3855962788E-02  2.3498510349E-02  3.4715691298E-01
  5.9000000000E+03  2.0433744087E+00  6.7633142138E+00  2.3913333847E-02  2.3554397651E-02  3.4738197969E-01
  5.9050000000E+03  2.0452829810E+00  6.7609105507E+00  2.3970793351E-02  2.3610368437E-02  3.4760693089E-01
  5.9100000000E+03  2.0471917183E+00  6.7585097753E+00  2.4028341360E-02  2.3666422756E-02  3.4783176691E-01
  5.9150000000E+03  2.0491006206E+00  6.7561118815E+00  2.4085977932E-02  2.3722560652E-02  3.4805648809E-01
  5.9200000000E+03  2.0510110323E+00  6.7537168635E+00  2.4143703128E-02  2.3778782355E-02  3.4828109476E-01
  5.9250000000E+03  2.0529218004E+00  6.7513247155E+00  2.4201517008E-02  2.3835087756E-02  3.4850558726E-01
  5.9300000000E+03  2.0548327346E+00  6.7489354315E+00  2.4259419630E-02  2.3891476877E-02  3.4872996592E-01
  5.9350000000E+03  2.0567438348E+00  6.7465490057E+00  2.4317411053E-02  2.3947949765E-02  3.4895423109E-01
  5.9400000000E+03  2.0586551008E+00  6.7441654323E+00  2.4375491339E-02  2.4004506467E-02  3.4917838310E-01
  5.9450000000E+03  2.0605665325E+00  6.7417847055E+00  2.4433660545E-02  2.4061147028E-02  3.4940242227E-01
  5.9500000000E+03  2.0624781298E+00  6.7394068195E+00  2.4491918731E-02  2.4117871496E-02  3.4962634895E-01
  5.9550000000E+03  2.0643898925E+00  6.7370317686E+00  2.4550265957E-02  2.4174679916E-02  3.4985016346E-01
  5.9600000000E+03  2.0663018206E+00  6.7346595469E+00  2.4608702282E-02  2.4231572337E-02  3.5007386613E-01
  5.9650000000E+03  2.0682139139E+00  6.7323295491E+00  2.4667227765E-02  2.4288549316E-02  3.5029745731E-01
  5.9700000000E+03  2.0701261722E+00  6.7300038780E+00  2.4725842466E-02  2.4345610412E-02  3.5052093732E-01
  5.9750000000E+03  2.0720615763E+00  6.7276809563E+00  2.4784546445E-02  2.4402758840E-02  3.5074430648E-01
  5.9800000000E+03  2.0739988993E+00  6.7253607784E+00  2.4843339759E-02  2.4459991720E-02  3.5096756513E-01
  5.9850000000E+03  2.0759364122E+00  6.7230433388E+00  2.4902222470E-02  2.4517308860E-02  3.5119071360E-01
  5.9900000000E+03  2.0778741149E+00  6.7207286320E+00  2.4961194635E-02  2.4574710305E-02  3.5141375222E-01
  5.9950000000E+03  2.0798120072E+00  6.7184166525E+00  2.5020256315E-02  2.4632196102E-02  3.5163668130E-01
  6.0000000000E+03  2.0817500890E+00  6.7161073947E+00  2.5079407569E-02  2.4689766298E-02  3.5185950119E-01
  6.0050000000E+03  2.0836883602E+00  6.7138008533E+00  2.5139194061E-02  2.4747949695E-02  3.5208221221E-01
  6.0100000000E+03  2.0856268206E+00  6.7114970228E+00  2.5199072414E-02  2.4806219626E-02  3.5230481467E-01
  6.0150000000E+03  2.0875654701E+00  6.7091958976E+00  2.5259042691E-02  2.4864576142E-02  3.5252730892E-01
  6.0200000000E+03  2.0895043085E+00  6.7068974726E+00  2.5319104953E-02  2.4923019291E-02  3.5274969526E-01
  6.0250000000E+03  2.0914433357E+00  6.7046017421E+00  2.5379259265E-02  2.4981549123E-02  3.5297197404E-01
  6.0300000000E+03  2.0933862729E+00  6.7023087008E+00  2.5439505689E-02  2.5040166219E-02  3.5319414556E-01
  6.0350000000E+03  2.0953299100E+00  6.7000183434E+00  2.5499844287E-02  2.5098870173E-02  3.5341621016E-01
  6.0400000000E+03  2.0972737399E+00  6.6977306645E+00  2.5560275123E-02  2.5157660961E-02  3.5363816815E-01
  6.0450000000E+03  2.0992177623E+00  6.6954456587E+00  2.5620798259E-02  2.5216538632E-02  3.5386001985E-01
  6.0500000000E+03  2.1011619772E+00  6.6931633207E+00  2.5681413758E-02  2.5275503236E-02  3.5408176560E-01
  6.0550000000E+03  2.1031063844E+00  6.6908836452E+00  2.5742121683E-02  2.5334554821E-02  3.5430340570E-01
  6.0600000000E+03  2.1050509838E+00  6.6886368312E+00  2.5802922096E-02  2.5393693871E-02  3.5452494049E-01
  6.0650000000E+03  2.1069957751E+00  6.6864015644E+00  2.5863815060E-02  2.5452920134E-02  3.5474637027E-01
  6.0700000000E+03  2.1089407584E+00  6.6841688856E+00  2.5924800639E-02  2.5512233531E-02  3.5496769537E-01
  6.0750000000E+03  2.1108859334E+00  6.6819387898E+00  2.5985878894E-02  2.5571634110E-02  3.5518891611E-01
  6.0800000000E+03  2.1128313000E+00  6.6797112718E+00  2.6047049889E-02  2.5631121919E-02  3.5541003283E-01
  6.0850000000E+03  2.1147966446E+00  6.6774863266E+00  2.6108313685E-02  2.5690699929E-02  3.5563104618E-01
  6.0900000000E+03  2.1167695230E+00  6.6752639490E+00  2.6169670346E-02  2.5750366370E-02  3.5585195654E-01
  6.0950000000E+03  2.1187426205E+00  6.6730441341E+00  2.6231119935E-02  2.5810120216E-02  3.5607276420E-01
  6.1000000000E+03  2.1207159370E+00  6.6708268766E+00  2.6292662513E-02  2.5869961514E-02  3.5629346949E-01
  6.1050000000E+03  2.1226894723E+00  6.6686121717E+00  2.6354298144E-02  2.5929890313E-02  3.5651407270E-01
  6.1100000000E+03  2.1246632262E+00  6.6664000143E+00  2.6416026891E-02  2.5989906662E-02  3.5673457412E-01
  6.1150000000E+03  2.1266371987E+00  6.6641903993E+00  2.6477848815E-02  2.6050010611E-02  3.5695497408E-01
  6.1200000000E+03  2.1286113894E+00  6.6619833218E+00  2.6539763980E-02  2.6110202207E-02  3.5717527285E-01
  6.1250000000E+03  2.1305857984E+00  6.6597787768E+00  2.6601772448E-02  2.6170481499E-02  3.5739547076E-01
  6.1300000000E+03  2.1325604254E+00  6.6575767593E+00  2.6663874281E-02  2.6230848536E-02  3.5761556809E-01
  6.1350000000E+03  2.1345352703E+00  6.6553772644E+00  2.6726069543E-02  2.6291303366E-02  3.5783556515E-01
  6.1400000000E+03  2.1365100833E+00  6.6531802871E+00  2.6788358295E-02  2.6351846001E-02  3.5805546223E-01
  6.1450000000E+03  2.1384848389E+00  6.6509858224E+00  2.6850740601E-02  2.6412476483E-02  3.5827525964E-01
  6.1500000000E+03  2.1404598113E+00  6.6487938656E+00  2.6913216523E-02  2.6473194903E-02  3.5849495767E-01
  6.1550000000E+03  2.1424350005E+00  6.6466146022E+00  2.6975786123E-02  2.6534001473E-02  3.5871455662E-01
  6.1600000000E+03  2.1444104062E+00  6.6444650296E+00  2.7038449463E-02  2.6594896514E-02  3.5893405678E-01
  6.1650000000E+03  2.1463860284E+00  6.6423178955E+00  2.7101206607E-02  2.6655879645E-02  3.5915345846E-01
  6.1700000000E+03  2.1483618668E+00  6.6401731950E+00  2.7164057617E-02  2.6716950912E-02  3.5937276196E-01
  6.1750000000E+03  2.1503379213E+00  6.6380309234E+00  2.7227002556E-02  2.6778110365E-02  3.5959196756E-01
  6.1800000000E+03  2.1523141918E+00  6.6358910761E+00  2.7290041485E-02  2.6839358051E-02  3.5981107555E-01
  6.1850000000E+03  2.1542906781E+00  6.6337536483E+00  2.7353174467E-02  2.6900694019E-02  3.6003008625E-01
  6.1900000000E+03  2.1562673801E+00  6.6316186354E+00  2.7416401565E-02  2.6962118317E-02  3.6024899994E-01
  6.1950000000E+03  2.1582442490E+00  6.6294860327E+00  2.7479722841E-02  2.7023630986E-02  3.6046781690E-01
  6.2000000000E+03  2.1602209699E+00  6.6273558354E+00  2.7543138357E-02  2.7085232023E-02  3.6068653745E-01
  6.2050000000E+03  2.1621979056E+00  6.6252280390E+00  2.7606648177E-02  2.7146921534E-02  3.6090516186E-01
  6.2100000000E+03  2.1641750560E+00  6.6231026389E+00  2.7670252361E-02  2.7208699568E-02  3.6112369044E-01
  6.2150000000E+03  2.1661524208E+00  6.6209796303E+00  2.7733950974E-02  2.7270566171E-02  3.6134212347E-01
  6.2200000000E+03  2.1681300000E+00  6.6188590088E+00  2.7797744076E-02  2.7332521391E-02  3.6156046124E-01
  6.2250000000E+03  2.1701077934E+00  6.6167407696E+00  2.7861631731E-02  2.7394565278E-02  3.6177870405E-01
  6.2300000000E+03  2.1720858008E+00  6.6146249082E+00  2.7925614000E-02  2.7456697878E-02  3.6199685219E-01
  6.2350000000E+03  2.1740640221E+00  6.6125114200E+00  2.7989690947E-02  2.7518919239E-02  3.6221490594E-01
  6.2400000000E+03  2.1760424571E+00  6.6104003005E+00  2.8053862633E-02  2.7581229410E-02  3.6243286559E-01
  6.2450000000E+03  2.1780211058E+00  6.6082915451E+00  2.8118129121E-02  2.7643628438E-02  3.6265073144E-01
  6.2500000000E+03  2.1799999679E+00  6.6061851493E+00  2.8182490473E-02  2.7706116370E-02  3.6286850376E-01
  6.2550000000E+03  2.1819786086E+00  6.6040975186E+00  2.8246946751E-02  2.7768693475E-02  3.6308618286E-01
  6.2600000000E+03  2.1839572321E+00  6.6020315192E+00  2.8311498017E-02  2.7831359887E-02  3.6330376902E-01
  6.2650000000E+03  2.1859360679E+00  6.5999678149E+00  2.8376144335E-02  2.7894115353E-02  3.6352126252E-01
  6.2700000000E+03  2.1879151158E+00  6.5979064012E+00  2.8440885766E-02  2.7956959918E-02  3.6373866364E-01
  6.2750000000E+03  2.1898943759E+00  6.5958472739E+00  2.8505722372E-02  2.8019893632E-02  3.6395597269E-01
  6.2800000000E+03  2.1918738478E+00  6.5937904284E+00  2.8570654215E-02  2.8082916541E-02  3.6417318994E-01
  6.2850000000E+03  2.1938535314E+00  6.5917358606E+00  2.8635681359E-02  2.8146028692E-02  3.6439031567E-01
  6.2900000000E+03  2.1958334267E+00  6.5896835661E+00  2.8700803864E-02  2.8209230135E-02  3.6460735018E-01
  6.2950000000E+03  2.1978135334E+00  6.5876335405E+00  2.8766021794E-02  2.8272520915E-02  3.6482429374E-01
  6.3000000000E+03  2.1997938514E+00  6.5855857795E+00  2.8831335210E-02  2.8335901080E-02  3.6504114664E-01
  6.3050000000E+03  2.2017743805E+00  6.5835402789E+00  2.8896744175E-02  2.8399370678E-02  3.6525790917E-01
  6.3100000000E+03  2.2037550379E+00  6.5814970344E+00  2.8962248750E-02  2.8462929742E-02  3.6547458160E-01
  6.3150000000E+03  2.2057350256E+00  6.5794560417E+00  2.9027848999E-02  2.8526578186E-02  3.6569116422E-01
  6.3200000000E+03  2.2077152231E+00  6.5774172964E+00  2.9093544982E-02  2.8590316203E-02  3.6590765732E-01
  6.3250000000E+03  2.2096956302E+00  6.5753807945E+00  2.9159336763E-02  2.8654143841E-02  3.6612406116E-01
  6.3300000000E+03  2.2116762467E+00  6.5733465316E+00  2.9225224403E-02  2.8718061147E-02  3.6634037604E-01
  6.3350000000E+03  2.2136570726E+00  6.5713145036E+00  2.9291207964E-02  2.8782068168E-02  3.6655660224E-01
  6.3400000000E+03  2.2156381077E+00  6.5692847061E+00  2.9357287509E-02  2.8846164951E-02  3.6677274002E-01
  6.3450000000E+03  2.2176193518E+00  6.5672571350E+00  2.9423463099E-02  2.8910351543E-02  3.6698878969E-01
  6.3500000000E+03  2.2196008049E+00  6.5652317861E+00  2.9489734798E-02  2.8974627991E-02  3.6720475151E-01
