#[MATERIAL DEFINITION FOR MC-GPU: interaction mean free path and sampling data from PENELOPE 2018]
#[MATERIAL NAME]
# brain                                                         
#[NOMINAL DENSITY (g/cm^3)]
#   1.05000000
#[NUMBER OF DATA VALUES]
#  23002
#[MEAN FREE PATHS (cm) (ie, average distance between interactions)]
#[Energy (eV)     | Rayleigh        | Compton         | Photoelectric   | TOTAL (+pair prod) (cm) | Rayleigh: max cumul prob F^2]
  5.0000000000E+03  1.7316265233E+00  8.1031418776E+00  2.3336158078E-02  2.2960606851E-02  3.4637322639E-01
  5.0050000000E+03  1.7336683745E+00  8.0980187013E+00  2.3406355658E-02  2.3028879221E-02  3.4663508552E-01
  5.0100000000E+03  1.7357105910E+00  8.0929038747E+00  2.3476693706E-02  2.3097283986E-02  3.4689664494E-01
  5.0150000000E+03  1.7377545906E+00  8.0877973761E+00  2.3547172363E-02  2.3165821513E-02  3.4715790527E-01
  5.0200000000E+03  1.7397998047E+00  8.0826991834E+00  2.3617791769E-02  2.3234491816E-02  3.4741886714E-01
  5.0250000000E+03  1.7418453862E+00  8.0776092749E+00  2.3688552063E-02  2.3303294857E-02  3.4767953119E-01
  5.0300000000E+03  1.7438913348E+00  8.0725276290E+00  2.3759453385E-02  2.3372230749E-02  3.4793989805E-01
  5.0350000000E+03  1.7459376503E+00  8.0674542241E+00  2.3830495873E-02  2.3441299606E-02  3.4819996834E-01
  5.0400000000E+03  1.7479843323E+00  8.0623890385E+00  2.3901679668E-02  2.3510501539E-02  3.4845974268E-01
  5.0450000000E+03  1.7500313805E+00  8.0573320510E+00  2.3973004910E-02  2.3579836661E-02  3.4871922170E-01
  5.0500000000E+03  1.7520787946E+00  8.0522832400E+00  2.4044471737E-02  2.3649305085E-02  3.4897840601E-01
  5.0550000000E+03  1.7541265744E+00  8.0472425843E+00  2.4116080289E-02  2.3718906923E-02  3.4923729624E-01
  5.0600000000E+03  1.7561748850E+00  8.0422100627E+00  2.4187830706E-02  2.3788642318E-02  3.4949589300E-01
  5.0650000000E+03  1.7582238686E+00  8.0371856540E+00  2.4259723127E-02  2.3858511409E-02  3.4975419690E-01
  5.0700000000E+03  1.7602732175E+00  8.0321693372E+00  2.4331757693E-02  2.3928514252E-02  3.5001220856E-01
  5.0750000000E+03  1.7623229315E+00  8.0271610912E+00  2.4403934541E-02  2.3998650958E-02  3.5026992858E-01
  5.0800000000E+03  1.7643730103E+00  8.0221608952E+00  2.4476253812E-02  2.4068921641E-02  3.5052735757E-01
  5.0850000000E+03  1.7664234536E+00  8.0172557944E+00  2.4548715646E-02  2.4139327201E-02  3.5078449614E-01
  5.0900000000E+03  1.7684742611E+00  8.0123669510E+00  2.4621320182E-02  2.4209867048E-02  3.5104134490E-01
  5.0950000000E+03  1.7705254325E+00  8.0074858843E+00  2.4694067558E-02  2.4280541217E-02  3.5129790444E-01
  5.1000000000E+03  1.7725769675E+00  8.0026125745E+00  2.4766957916E-02  2.4351349820E-02  3.5155417536E-01
  5.1050000000E+03  1.7746288659E+00  7.9977470017E+00  2.4839991394E-02  2.4422292970E-02  3.5181015827E-01
  5.1100000000E+03  1.7766820079E+00  7.9928891459E+00  2.4913168132E-02  2.4493370944E-02  3.5206585375E-01
  5.1150000000E+03  1.7787355227E+00  7.9880389874E+00  2.4986488270E-02  2.4564583692E-02  3.5232126241E-01
  5.1200000000E+03  1.7807894011E+00  7.9831965066E+00  2.5059951946E-02  2.4635931322E-02  3.5257638484E-01
  5.1250000000E+03  1.7828436429E+00  7.9783616837E+00  2.5133559300E-02  2.4707413946E-02  3.5283122162E-01
  5.1300000000E+03  1.7848982478E+00  7.9735344992E+00  2.5207310473E-02  2.4779031676E-02  3.5308577335E-01
  5.1350000000E+03  1.7869532154E+00  7.9687149336E+00  2.5281205603E-02  2.4850784623E-02  3.5334004061E-01
  5.1400000000E+03  1.7890085455E+00  7.9639029676E+00  2.5355244829E-02  2.4922672898E-02  3.5359402398E-01
  5.1450000000E+03  1.7910642378E+00  7.9590985816E+00  2.5429428292E-02  2.4994696614E-02  3.5384772406E-01
  5.1500000000E+03  1.7931202920E+00  7.9543017565E+00  2.5503756130E-02  2.5066855880E-02  3.5410114142E-01
  5.1550000000E+03  1.7951775333E+00  7.9495124730E+00  2.5578228484E-02  2.5139150970E-02  3.5435427664E-01
  5.1600000000E+03  1.7972358350E+00  7.9447307120E+00  2.5652845493E-02  2.5211581972E-02  3.5460713033E-01
  5.1650000000E+03  1.7992944997E+00  7.9400076146E+00  2.5727607295E-02  2.5284149379E-02  3.5485970334E-01
  5.1700000000E+03  1.8013535273E+00  7.9353330534E+00  2.5802514032E-02  2.5356853210E-02  3.5511199637E-01
  5.1750000000E+03  1.8034129172E+00  7.9306657590E+00  2.5877565841E-02  2.5429693161E-02  3.5536401010E-01
  5.1800000000E+03  1.8054726694E+00  7.9260057130E+00  2.5952762863E-02  2.5502669342E-02  3.5561574521E-01
  5.1850000000E+03  1.8075327835E+00  7.9213528973E+00  2.6028105237E-02  2.5575781864E-02  3.5586720236E-01
  5.1900000000E+03  1.8095932592E+00  7.9167072936E+00  2.6103593102E-02  2.5649030839E-02  3.5611838223E-01
  5.1950000000E+03  1.8116540963E+00  7.9120688838E+00  2.6179226598E-02  2.5722416376E-02  3.5636928549E-01
  5.2000000000E+03  1.8137152991E+00  7.9074376499E+00  2.6255005865E-02  2.5795938587E-02  3.5661991280E-01
  5.2050000000E+03  1.8157774472E+00  7.9028135739E+00  2.6330931041E-02  2.5869597700E-02  3.5687026482E-01
  5.2100000000E+03  1.8178399565E+00  7.8981966379E+00  2.6407002267E-02  2.5943393709E-02  3.5712034222E-01
  5.2150000000E+03  1.8199028268E+00  7.8935868240E+00  2.6483219681E-02  2.6017326723E-02  3.5737014565E-01
  5.2200000000E+03  1.8219660578E+00  7.8889841145E+00  2.6559583423E-02  2.6091396853E-02  3.5761967577E-01
  5.2250000000E+03  1.8240296491E+00  7.8843884915E+00  2.6636093633E-02  2.6165604210E-02  3.5786893324E-01
  5.2300000000E+03  1.8260936007E+00  7.8797999374E+00  2.6712750450E-02  2.6239948902E-02  3.5811791869E-01
  5.2350000000E+03  1.8281579120E+00  7.8752184346E+00  2.6789554013E-02  2.6314431041E-02  3.5836663279E-01
  5.2400000000E+03  1.8302225829E+00  7.8706439655E+00  2.6866504462E-02  2.6389050737E-02  3.5861507618E-01
  5.2450000000E+03  1.8322876131E+00  7.8660765127E+00  2.6943601937E-02  2.6463808099E-02  3.5886324949E-01
  5.2500000000E+03  1.8343540460E+00  7.8615993303E+00  2.7020846576E-02  2.6538704405E-02  3.5911115338E-01
  5.2550000000E+03  1.8364225002E+00  7.8571349374E+00  2.7098238519E-02  2.6613739027E-02  3.5935878848E-01
  5.2600000000E+03  1.8384913163E+00  7.8526773218E+00  2.7175777905E-02  2.6688911661E-02  3.5960615543E-01
  5.2650000000E+03  1.8405604941E+00  7.8482264668E+00  2.7253464875E-02  2.6764222417E-02  3.5985325486E-01
  5.2700000000E+03  1.8426300333E+00  7.8437823558E+00  2.7331299566E-02  2.6839671406E-02  3.6010008741E-01
  5.2750000000E+03  1.8446999337E+00  7.8393449721E+00  2.7409282120E-02  2.6915258735E-02  3.6034665370E-01
  5.2800000000E+03  1.8467701948E+00  7.8349142992E+00  2.7487412674E-02  2.6990984516E-02  3.6059295436E-01
  5.2850000000E+03  1.8488408166E+00  7.8304903207E+00  2.7565691369E-02  2.7066848857E-02  3.6083899002E-01
  5.2900000000E+03  1.8509117986E+00  7.8260730200E+00  2.7644118344E-02  2.7142851869E-02  3.6108476130E-01
  5.2950000000E+03  1.8529831406E+00  7.8216623809E+00  2.7722693738E-02  2.7218993659E-02  3.6133026883E-01
  5.3000000000E+03  1.8550549124E+00  7.8172583869E+00  2.7801417691E-02  2.7295274353E-02  3.6157551321E-01
  5.3050000000E+03  1.8571270777E+00  7.8128610218E+00  2.7880290342E-02  2.7371694053E-02  3.6182049506E-01
  5.3100000000E+03  1.8591996024E+00  7.8084702695E+00  2.7959311831E-02  2.7448252859E-02  3.6206521501E-01
  5.3150000000E+03  1.8612724860E+00  7.8040861137E+00  2.8038482296E-02  2.7524950882E-02  3.6230967365E-01
  5.3200000000E+03  1.8633457284E+00  7.7997085384E+00  2.8117801877E-02  2.7601788230E-02  3.6255387161E-01
  5.3250000000E+03  1.8654193293E+00  7.7953375274E+00  2.8197270714E-02  2.7678765011E-02  3.6279780949E-01
  5.3300000000E+03  1.8674932884E+00  7.7909768962E+00  2.8276888946E-02  2.7755881385E-02  3.6304148789E-01
  5.3350000000E+03  1.8695676054E+00  7.7867052573E+00  2.8356656713E-02  2.7833138464E-02  3.6328490741E-01
  5.3400000000E+03  1.8716422801E+00  7.7824399587E+00  2.8436574153E-02  2.7910535316E-02  3.6352806867E-01
  5.3450000000E+03  1.8737173121E+00  7.7781809850E+00  2.8516641406E-02  2.7988072050E-02  3.6377097225E-01
  5.3500000000E+03  1.8757921539E+00  7.7739283211E+00  2.8596858611E-02  2.8065748651E-02  3.6401361876E-01
  5.3550000000E+03  1.8778672713E+00  7.7696819515E+00  2.8677225909E-02  2.8143565332E-02  3.6425600878E-01
  5.3600000000E+03  1.8799427446E+00  7.7654418613E+00  2.8757743437E-02  2.8221522220E-02  3.6449814292E-01
  5.3650000000E+03  1.8820185733E+00  7.7612080352E+00  2.8838411336E-02  2.8299619421E-02  3.6474002175E-01
  5.3700000000E+03  1.8840947573E+00  7.7569804582E+00  2.8919229745E-02  2.8377857046E-02  3.6498164588E-01
  5.3750000000E+03  1.8861712962E+00  7.7527591152E+00  2.9000198803E-02  2.8456235202E-02  3.6522301589E-01
  5.3800000000E+03  1.8882481897E+00  7.7485439912E+00  2.9081318649E-02  2.8534753997E-02  3.6546413235E-01
  5.3850000000E+03  1.8903254377E+00  7.7443350714E+00  2.9162589423E-02  2.8613413540E-02  3.6570499586E-01
  5.3900000000E+03  1.8924030399E+00  7.7401323408E+00  2.9244011265E-02  2.8692213938E-02  3.6594560699E-01
  5.3950000000E+03  1.8944809959E+00  7.7359357846E+00  2.9325584313E-02  2.8771155300E-02  3.6618596632E-01
  5.4000000000E+03  1.8965602154E+00  7.7317453881E+00  2.9407308707E-02  2.8850237943E-02  3.6642607443E-01
  5.4050000000E+03  1.8986398098E+00  7.7275611365E+00  2.9489184586E-02  2.8929461773E-02  3.6666593189E-01
  5.4100000000E+03  1.9007197585E+00  7.7233830151E+00  2.9571212090E-02  2.9008826891E-02  3.6690553928E-01
  5.4150000000E+03  1.9028000612E+00  7.7192110093E+00  2.9653391358E-02  2.9088333405E-02  3.6714489716E-01
  5.4200000000E+03  1.9048807176E+00  7.7151188772E+00  2.9735722528E-02  2.9167982478E-02  3.6738400610E-01
  5.4250000000E+03  1.9069617274E+00  7.7110423635E+00  2.9818205742E-02  2.9247773313E-02  3.6762286667E-01
  5.4300000000E+03  1.9090430904E+00  7.7069717562E+00  2.9900841137E-02  2.9327705881E-02  3.6786147944E-01
  5.4350000000E+03  1.9111248064E+00  7.7029070414E+00  2.9983628853E-02  2.9407780289E-02  3.6809984496E-01
  5.4400000000E+03  1.9132068750E+00  7.6988482050E+00  3.0066569030E-02  2.9487996643E-02  3.6833796380E-01
  5.4450000000E+03  1.9152892960E+00  7.6947952332E+00  3.0149661806E-02  2.9568355053E-02  3.6857583651E-01
  5.4500000000E+03  1.9174485768E+00  7.6907481121E+00  3.0232907321E-02  2.9648873917E-02  3.6881346365E-01
  5.4550000000E+03  1.9196087707E+00  7.6867068280E+00  3.0316305715E-02  2.9729535303E-02  3.6905084578E-01
  5.4600000000E+03  1.9217694158E+00  7.6826713671E+00  3.0399857127E-02  2.9810339209E-02  3.6928798345E-01
  5.4650000000E+03  1.9239305118E+00  7.6786417156E+00  3.0483561695E-02  2.9891285741E-02  3.6952487720E-01
  5.4700000000E+03  1.9260920584E+00  7.6746178599E+00  3.0567419560E-02  2.9972375008E-02  3.6976152760E-01
  5.4750000000E+03  1.9282540553E+00  7.6705997864E+00  3.0651430860E-02  3.0053607117E-02  3.6999793518E-01
  5.4800000000E+03  1.9304165021E+00  7.6665874814E+00  3.0735595735E-02  3.0134982176E-02  3.7023410050E-01
  5.4850000000E+03  1.9325793985E+00  7.6625809316E+00  3.0819914324E-02  3.0216500292E-02  3.7047002408E-01
  5.4900000000E+03  1.9347427442E+00  7.6585801233E+00  3.0904386767E-02  3.0298161572E-02  3.7070570649E-01
  5.4950000000E+03  1.9369065390E+00  7.6545850431E+00  3.0989013202E-02  3.0379966123E-02  3.7094114825E-01
  5.5000000000E+03  1.9390746422E+00  7.6505956777E+00  3.1073793769E-02  3.0461915006E-02  3.7117634991E-01
  5.5050000000E+03  1.9412435438E+00  7.6466480723E+00  3.1159179914E-02  3.0544441717E-02  3.7141131199E-01
  5.5100000000E+03  1.9434128991E+00  7.6427506111E+00  3.1244722556E-02  3.0627114688E-02  3.7164603505E-01
  5.5150000000E+03  1.9455827077E+00  7.6388586689E+00  3.1330421839E-02  3.0709933322E-02  3.7188051961E-01
  5.5200000000E+03  1.9477529693E+00  7.6349722327E+00  3.1416277905E-02  3.0792897729E-02  3.7211476639E-01
  5.5250000000E+03  1.9499236835E+00  7.6310912900E+00  3.1502290898E-02  3.0876008021E-02  3.7234877606E-01
  5.5300000000E+03  1.9520948501E+00  7.6272158278E+00  3.1588460963E-02  3.0959264307E-02  3.7258254927E-01
  5.5350000000E+03  1.9542664688E+00  7.6233458336E+00  3.1674788241E-02  3.1042666697E-02  3.7281608663E-01
  5.5400000000E+03  1.9564385391E+00  7.6194812947E+00  3.1761272878E-02  3.1126215302E-02  3.7304938878E-01
  5.5450000000E+03  1.9586110609E+00  7.6156221985E+00  3.1847915016E-02  3.1209910232E-02  3.7328245634E-01
  5.5500000000E+03  1.9607837892E+00  7.6117685325E+00  3.1934714800E-02  3.1293751535E-02  3.7351528993E-01
  5.5550000000E+03  1.9629568855E+00  7.6079202840E+00  3.2021672372E-02  3.1377739361E-02  3.7374789017E-01
  5.5600000000E+03  1.9651304318E+00  7.6040774407E+00  3.2108787876E-02  3.1461873842E-02  3.7398025768E-01
  5.5650000000E+03  1.9673044279E+00  7.6002399900E+00  3.2196061456E-02  3.1546155086E-02  3.7421239308E-01
  5.5700000000E+03  1.9694788734E+00  7.5964079197E+00  3.2283493255E-02  3.1630583205E-02  3.7444429697E-01
  5.5750000000E+03  1.9716537680E+00  7.5925812172E+00  3.2371083417E-02  3.1715158307E-02  3.7467596996E-01
  5.5800000000E+03  1.9738291114E+00  7.5887598704E+00  3.2458832085E-02  3.1799880502E-02  3.7490741268E-01
  5.5850000000E+03  1.9760049033E+00  7.5849438669E+00  3.2546739404E-02  3.1884749900E-02  3.7513862571E-01
  5.5900000000E+03  1.9781811434E+00  7.5811331944E+00  3.2634805515E-02  3.1969766610E-02  3.7536960966E-01
  5.5950000000E+03  1.9803578313E+00  7.5773843345E+00  3.2723030564E-02  3.2054931753E-02  3.7560036514E-01
  5.6000000000E+03  1.9825350030E+00  7.5736615687E+00  3.2811414694E-02  3.2140244823E-02  3.7583089274E-01
  5.6050000000E+03  1.9847126606E+00  7.5699439519E+00  3.2899958047E-02  3.2225705558E-02  3.7606119306E-01
  5.6100000000E+03  1.9868907653E+00  7.5662314723E+00  3.2988660768E-02  3.2311314058E-02  3.7629126670E-01
  5.6150000000E+03  1.9890693167E+00  7.5625241184E+00  3.3077523001E-02  3.2397070432E-02  3.7652111424E-01
  5.6200000000E+03  1.9912483145E+00  7.5588218784E+00  3.3166544888E-02  3.2482974788E-02  3.7675073628E-01
  5.6250000000E+03  1.9934277585E+00  7.5551247407E+00  3.3255726573E-02  3.2569027237E-02  3.7698013340E-01
  5.6300000000E+03  1.9956076482E+00  7.5514326939E+00  3.3345068200E-02  3.2655227886E-02  3.7720930620E-01
  5.6350000000E+03  1.9977879835E+00  7.5477457263E+00  3.3434569913E-02  3.2741576844E-02  3.7743825524E-01
  5.6400000000E+03  1.9999687640E+00  7.5440638265E+00  3.3524231854E-02  3.2828074222E-02  3.7766698112E-01
  5.6450000000E+03  2.0021499895E+00  7.5403869831E+00  3.3614054168E-02  3.2914720126E-02  3.7789548442E-01
  5.6500000000E+03  2.0043318005E+00  7.5367151846E+00  3.3704036998E-02  3.3001514704E-02  3.7812376570E-01
  5.6550000000E+03  2.0065150351E+00  7.5330484197E+00  3.3794180487E-02  3.3088458293E-02  3.7835182555E-01
  5.6600000000E+03  2.0086987150E+00  7.5293866770E+00  3.3884484780E-02  3.3175550738E-02  3.7857966454E-01
  5.6650000000E+03  2.0108828402E+00  7.5257299452E+00  3.3974950019E-02  3.3262792146E-02  3.7880728324E-01
  5.6700000000E+03  2.0130674101E+00  7.5220782130E+00  3.4065576348E-02  3.3350182626E-02  3.7903468221E-01
  5.6750000000E+03  2.0152524246E+00  7.5184314693E+00  3.4156363911E-02  3.3437722286E-02  3.7926186203E-01
  5.6800000000E+03  2.0174378834E+00  7.5147897027E+00  3.4247312851E-02  3.3525411234E-02  3.7948882325E-01
  5.6850000000E+03  2.0196237861E+00  7.5112068852E+00  3.4338423312E-02  3.3613250661E-02  3.7971556645E-01
  5.6900000000E+03  2.0218101324E+00  7.5076491565E+00  3.4429695437E-02  3.3701240011E-02  3.7994209217E-01
  5.6950000000E+03  2.0239969221E+00  7.5040962356E+00  3.4521129370E-02  3.3789378989E-02  3.8016840099E-01
  5.7000000000E+03  2.0261841548E+00  7.5005481118E+00  3.4612725254E-02  3.3877667703E-02  3.8039449344E-01
  5.7050000000E+03  2.0283717295E+00  7.4970047746E+00  3.4704483234E-02  3.3966106234E-02  3.8062037010E-01
  5.7100000000E+03  2.0305596973E+00  7.4934662131E+00  3.4796403451E-02  3.4054694703E-02  3.8084603151E-01
  5.7150000000E+03  2.0327481071E+00  7.4899324168E+00  3.4888486051E-02  3.4143433231E-02  3.8107147822E-01
  5.7200000000E+03  2.0349369586E+00  7.4864033752E+00  3.4980731176E-02  3.4232321926E-02  3.8129671078E-01
  5.7250000000E+03  2.0371262514E+00  7.4828790777E+00  3.5073138970E-02  3.4321360896E-02  3.8152172974E-01
  5.7300000000E+03  2.0393159852E+00  7.4793595137E+00  3.5165709577E-02  3.4410550249E-02  3.8174653563E-01
  5.7350000000E+03  2.0415061598E+00  7.4758446728E+00  3.5258443139E-02  3.4499890091E-02  3.8197112901E-01
  5.7400000000E+03  2.0436967749E+00  7.4723345446E+00  3.5351339802E-02  3.4589380530E-02  3.8219551041E-01
  5.7450000000E+03  2.0458878302E+00  7.4688291186E+00  3.5444399707E-02  3.4679021674E-02  3.8241968038E-01
  5.7500000000E+03  2.0480793254E+00  7.4653283844E+00  3.5537623000E-02  3.4768813630E-02  3.8264363944E-01
  5.7550000000E+03  2.0502714094E+00  7.4618323318E+00  3.5631009822E-02  3.4858756547E-02  3.8286738813E-01
  5.7600000000E+03  2.0524650290E+00  7.4583409503E+00  3.5724560318E-02  3.4948850809E-02  3.8309092699E-01
  5.7650000000E+03  2.0546590891E+00  7.4548542297E+00  3.5818274631E-02  3.5039096206E-02  3.8331425655E-01
  5.7700000000E+03  2.0568535895E+00  7.4513721597E+00  3.5912152906E-02  3.5129492845E-02  3.8353737733E-01
  5.7750000000E+03  2.0590485299E+00  7.4479256851E+00  3.6006195284E-02  3.5220041526E-02  3.8376028986E-01
  5.7800000000E+03  2.0612439100E+00  7.4445239963E+00  3.6100401910E-02  3.5310742574E-02  3.8398299468E-01
  5.7850000000E+03  2.0634397295E+00  7.4411268004E+00  3.6194772928E-02  3.5401595202E-02  3.8420549229E-01
  5.7900000000E+03  2.0656359881E+00  7.4377340877E+00  3.6289308481E-02  3.5492599516E-02  3.8442778322E-01
  5.7950000000E+03  2.0678326855E+00  7.4343458485E+00  3.6384008712E-02  3.5583755622E-02  3.8464986800E-01
  5.8000000000E+03  2.0700298215E+00  7.4309620729E+00  3.6478873765E-02  3.5675063628E-02  3.8487174714E-01
  5.8050000000E+03  2.0722273957E+00  7.4275827513E+00  3.6573903783E-02  3.5766523639E-02  3.8509342116E-01
  5.8100000000E+03  2.0744257026E+00  7.4242078739E+00  3.6669098910E-02  3.5858135850E-02  3.8531489056E-01
  5.8150000000E+03  2.0766247776E+00  7.4208374311E+00  3.6764459290E-02  3.5949900379E-02  3.8553615587E-01
  5.8200000000E+03  2.0788242907E+00  7.4174714132E+00  3.6859985066E-02  3.6041817234E-02  3.8575721760E-01
  5.8250000000E+03  2.0810242417E+00  7.4141098107E+00  3.6955676381E-02  3.6133886520E-02  3.8597807625E-01
  5.8300000000E+03  2.0832246303E+00  7.4107526140E+00  3.7051533380E-02  3.6226108345E-02  3.8619873233E-01
  5.8350000000E+03  2.0854254562E+00  7.4073998136E+00  3.7147556205E-02  3.6318482814E-02  3.8641918634E-01
  5.8400000000E+03  2.0876267191E+00  7.4040513998E+00  3.7243745000E-02  3.6411010033E-02  3.8663943880E-01
  5.8450000000E+03  2.0898284187E+00  7.4007073633E+00  3.7340099909E-02  3.6503690108E-02  3.8685949019E-01
  5.8500000000E+03  2.0920305547E+00  7.3973676945E+00  3.7436621075E-02  3.6596523145E-02  3.8707934102E-01
  5.8550000000E+03  2.0942331269E+00  7.3940323841E+00  3.7533308641E-02  3.6689509248E-02  3.8729899169E-01
  5.8600000000E+03  2.0964361349E+00  7.3907014226E+00  3.7630162752E-02  3.6782648525E-02  3.8751844274E-01
  5.8650000000E+03  2.0986401858E+00  7.3873748006E+00  3.7727183550E-02  3.6875941268E-02  3.8773769472E-01
  5.8700000000E+03  2.1008449044E+00  7.3841103651E+00  3.7824371180E-02  3.6969388917E-02  3.8795674819E-01
  5.8750000000E+03  2.1030500590E+00  7.3808605255E+00  3.7921725784E-02  3.7062990334E-02  3.8817560371E-01
  5.8800000000E+03  2.1052556494E+00  7.3776148791E+00  3.8019247507E-02  3.7156745365E-02  3.8839426184E-01
  5.8850000000E+03  2.1074616753E+00  7.3743734168E+00  3.8116936491E-02  3.7250654115E-02  3.8861272311E-01
  5.8900000000E+03  2.1096681363E+00  7.3711361298E+00  3.8214792880E-02  3.7344716690E-02  3.8883098809E-01
  5.8950000000E+03  2.1118750323E+00  7.3679030090E+00  3.8312816819E-02  3.7438933194E-02  3.8904905731E-01
  5.9000000000E+03  2.1140823629E+00  7.3646740456E+00  3.8411008449E-02  3.7533303733E-02  3.8926693133E-01
  5.9050000000E+03  2.1162901278E+00  7.3614492308E+00  3.8509367916E-02  3.7627828411E-02  3.8948461068E-01
  5.9100000000E+03  2.1184983268E+00  7.3582285556E+00  3.8607895361E-02  3.7722507334E-02  3.8970209591E-01
  5.9150000000E+03  2.1207069596E+00  7.3550120114E+00  3.8706590930E-02  3.7817340606E-02  3.8991938756E-01
  5.9200000000E+03  2.1229177915E+00  7.3517995892E+00  3.8805454764E-02  3.7912328896E-02  3.9013648616E-01
  5.9250000000E+03  2.1251293088E+00  7.3485912804E+00  3.8904487009E-02  3.8007471828E-02  3.9035339224E-01
  5.9300000000E+03  2.1273412616E+00  7.3453870763E+00  3.9003687807E-02  3.8102769428E-02  3.9057010635E-01
  5.9350000000E+03  2.1295536495E+00  7.3421869680E+00  3.9103057302E-02  3.8198221801E-02  3.9078662902E-01
  5.9400000000E+03  2.1317664723E+00  7.3389909470E+00  3.9202595637E-02  3.8293829050E-02  3.9100296076E-01
  5.9450000000E+03  2.1339797297E+00  7.3357990045E+00  3.9302302956E-02  3.8389591281E-02  3.9121910212E-01
  5.9500000000E+03  2.1361934213E+00  7.3326111320E+00  3.9402179402E-02  3.8485508597E-02  3.9143505361E-01
  5.9550000000E+03  2.1384075470E+00  7.3294273209E+00  3.9502225119E-02  3.8581581103E-02  3.9165081576E-01
  5.9600000000E+03  2.1406221065E+00  7.3262475625E+00  3.9602440250E-02  3.8677808903E-02  3.9186638910E-01
  5.9650000000E+03  2.1428370994E+00  7.3231347481E+00  3.9702824940E-02  3.8774193865E-02  3.9208177413E-01
  5.9700000000E+03  2.1450525254E+00  7.3200283679E+00  3.9803379331E-02  3.8870734416E-02  3.9229697138E-01
  5.9750000000E+03  2.1472677662E+00  7.3169259043E+00  3.9904103566E-02  3.8967430388E-02  3.9251198137E-01
  5.9800000000E+03  2.1494833924E+00  7.3138273490E+00  4.0004997790E-02  3.9064282071E-02  3.9272680460E-01
  5.9850000000E+03  2.1516994500E+00  7.3107326940E+00  4.0106062146E-02  3.9161289585E-02  3.9294144160E-01
  5.9900000000E+03  2.1539159390E+00  7.3076419310E+00  4.0207296777E-02  3.9258453033E-02  3.9315589288E-01
  5.9950000000E+03  2.1561328589E+00  7.3045550519E+00  4.0308701827E-02  3.9355772518E-02  3.9337015893E-01
  6.0000000000E+03  2.1583502095E+00  7.3014720486E+00  4.0410277440E-02  3.9453248145E-02  3.9358424027E-01
  6.0050000000E+03  2.1605679905E+00  7.2983929130E+00  4.0512753740E-02  3.9551575771E-02  3.9379813741E-01
  6.0100000000E+03  2.1627862017E+00  7.2953176371E+00  4.0615403997E-02  3.9650062587E-02  3.9401185084E-01
  6.0150000000E+03  2.1650048428E+00  7.2922462128E+00  4.0718228361E-02  3.9748708700E-02  3.9422538108E-01
  6.0200000000E+03  2.1672239135E+00  7.2891786320E+00  4.0821226980E-02  3.9847514218E-02  3.9443872861E-01
  6.0250000000E+03  2.1694434136E+00  7.2861148868E+00  4.0924400005E-02  3.9946479249E-02  3.9465189395E-01
  6.0300000000E+03  2.1716714852E+00  7.2830549692E+00  4.1027747585E-02  4.0045606670E-02  3.9486487758E-01
  6.0350000000E+03  2.1739011065E+00  7.2799988713E+00  4.1131269869E-02  4.0144894217E-02  3.9507767999E-01
  6.0400000000E+03  2.1761311677E+00  7.2769465851E+00  4.1234967006E-02  4.0244341623E-02  3.9529030169E-01
  6.0450000000E+03  2.1783616683E+00  7.2738981027E+00  4.1338839146E-02  4.0343948994E-02  3.9550274317E-01
  6.0500000000E+03  2.1805926082E+00  7.2708534163E+00  4.1442886439E-02  4.0443716438E-02  3.9571500491E-01
  6.0550000000E+03  2.1828239871E+00  7.2678125179E+00  4.1547109033E-02  4.0543644063E-02  3.9592708740E-01
  6.0600000000E+03  2.1850558047E+00  7.2648237131E+00  4.1651507079E-02  4.0643733488E-02  3.9613899113E-01
  6.0650000000E+03  2.1872880606E+00  7.2618529004E+00  4.1756080725E-02  4.0743983773E-02  3.9635071658E-01
  6.0700000000E+03  2.1895207547E+00  7.2588857492E+00  4.1860830121E-02  4.0844394581E-02  3.9656226424E-01
  6.0750000000E+03  2.1917538867E+00  7.2559222520E+00  4.1965755417E-02  4.0944966017E-02  3.9677363458E-01
  6.0800000000E+03  2.1939874563E+00  7.2529624013E+00  4.2070856761E-02  4.1045698189E-02  3.9698482809E-01
  6.0850000000E+03  2.1962646809E+00  7.2500061896E+00  4.2176134304E-02  4.1146606373E-02  3.9719584525E-01
  6.0900000000E+03  2.1985583906E+00  7.2470536094E+00  4.2281588194E-02  4.1247681243E-02  3.9740668653E-01
  6.0950000000E+03  2.2008526105E+00  7.2441046533E+00  4.2387218582E-02  4.1348917315E-02  3.9761735241E-01
  6.1000000000E+03  2.2031473402E+00  7.2411593138E+00  4.2493025616E-02  4.1450314695E-02  3.9782784335E-01
  6.1050000000E+03  2.2054425794E+00  7.2382175837E+00  4.2599009447E-02  4.1551873492E-02  3.9803815984E-01
  6.1100000000E+03  2.2077383278E+00  7.2352794554E+00  4.2705170222E-02  4.1653593812E-02  3.9824830234E-01
  6.1150000000E+03  2.2100345852E+00  7.2323449217E+00  4.2811508093E-02  4.1755475762E-02  3.9845827131E-01
  6.1200000000E+03  2.2123313511E+00  7.2294139753E+00  4.2918023208E-02  4.1857519450E-02  3.9866806724E-01
  6.1250000000E+03  2.2146286253E+00  7.2264866087E+00  4.3024715717E-02  4.1959724982E-02  3.9887769058E-01
  6.1300000000E+03  2.2169264076E+00  7.2235628148E+00  4.3131585769E-02  4.2062092465E-02  3.9908714179E-01
  6.1350000000E+03  2.2192246975E+00  7.2206425862E+00  4.3238633514E-02  4.2164622006E-02  3.9929642134E-01
  6.1400000000E+03  2.2215234960E+00  7.2177259157E+00  4.3345859101E-02  4.2267313712E-02  3.9950552969E-01
  6.1450000000E+03  2.2238228030E+00  7.2148127961E+00  4.3453262680E-02  4.2370167689E-02  3.9971446730E-01
  6.1500000000E+03  2.2261226167E+00  7.2119032202E+00  4.3560844399E-02  4.2473184044E-02  3.9992323462E-01
  6.1550000000E+03  2.2284229369E+00  7.2090134956E+00  4.3668604410E-02  4.2576363452E-02  4.0013183211E-01
  6.1600000000E+03  2.2307237634E+00  7.2061708292E+00  4.3776542860E-02  4.2679706983E-02  4.0034026024E-01
  6.1650000000E+03  2.2330250957E+00  7.2033315888E+00  4.3884659900E-02  4.2783213231E-02  4.0054851944E-01
  6.1700000000E+03  2.2353269336E+00  7.2004957675E+00  4.3992955678E-02  4.2886882302E-02  4.0075661037E-01
  6.1750000000E+03  2.2376292768E+00  7.1976633584E+00  4.4101430345E-02  4.2990714303E-02  4.0096453363E-01
  6.1800000000E+03  2.2399321250E+00  7.1948343546E+00  4.4210084050E-02  4.3094709339E-02  4.0117228969E-01
  6.1850000000E+03  2.2422354779E+00  7.1920087494E+00  4.4318916943E-02  4.3198867516E-02  4.0137987904E-01
  6.1900000000E+03  2.2445393353E+00  7.1891865357E+00  4.4427929172E-02  4.3303188941E-02  4.0158730217E-01
  6.1950000000E+03  2.2468437053E+00  7.1863677070E+00  4.4537120888E-02  4.3407673722E-02  4.0179455956E-01
  6.2000000000E+03  2.2491486436E+00  7.1835522563E+00  4.4646492239E-02  4.3512321985E-02  4.0200165168E-01
  6.2050000000E+03  2.2514540855E+00  7.1807401769E+00  4.4756043376E-02  4.3617133814E-02  4.0220857902E-01
  6.2100000000E+03  2.2537600307E+00  7.1779314621E+00  4.4865774447E-02  4.3722109313E-02  4.0241534204E-01
  6.2150000000E+03  2.2560664790E+00  7.1751261051E+00  4.4975685603E-02  4.3827248588E-02  4.0262194123E-01
  6.2200000000E+03  2.2583734299E+00  7.1723240992E+00  4.5085776992E-02  4.3932551744E-02  4.0282837706E-01
  6.2250000000E+03  2.2606808833E+00  7.1695254378E+00  4.5196048765E-02  4.4038018886E-02  4.0303465000E-01
  6.2300000000E+03  2.2629888388E+00  7.1667301140E+00  4.5306501070E-02  4.4143650121E-02  4.0324076052E-01
  6.2350000000E+03  2.2652972961E+00  7.1639381214E+00  4.5417134058E-02  4.4249445552E-02  4.0344670908E-01
  6.2400000000E+03  2.2676062550E+00  7.1611494533E+00  4.5527947877E-02  4.4355405285E-02  4.0365249616E-01
  6.2450000000E+03  2.2699157151E+00  7.1583641030E+00  4.5638942678E-02  4.4461529426E-02  4.0385812222E-01
  6.2500000000E+03  2.2722256762E+00  7.1555820639E+00  4.5750118609E-02  4.4567818078E-02  4.0406358772E-01
  6.2550000000E+03  2.2745361715E+00  7.1528296264E+00  4.5861475821E-02  4.4674272386E-02  4.0426889312E-01
  6.2600000000E+03  2.2768471849E+00  7.1501113784E+00  4.5973014462E-02  4.4780892645E-02  4.0447403890E-01
  6.2650000000E+03  2.2791586985E+00  7.1473963324E+00  4.6084734682E-02  4.4887677752E-02  4.0467902549E-01
  6.2700000000E+03  2.2814707119E+00  7.1446844821E+00  4.6196636632E-02  4.4994627811E-02  4.0488385337E-01
  6.2750000000E+03  2.2837832249E+00  7.1419758213E+00  4.6308720459E-02  4.5101742927E-02  4.0508852298E-01
  6.2800000000E+03  2.2860962372E+00  7.1392703435E+00  4.6420986315E-02  4.5209023204E-02  4.0529303479E-01
  6.2850000000E+03  2.2884097484E+00  7.1365680426E+00  4.6533434348E-02  4.5316468748E-02  4.0549738923E-01
  6.2900000000E+03  2.2907237583E+00  7.1338689122E+00  4.6646064707E-02  4.5424079661E-02  4.0570158678E-01
  6.2950000000E+03  2.2930382667E+00  7.1311729462E+00  4.6758877543E-02  4.5531856049E-02  4.0590562787E-01
  6.3000000000E+03  2.2953532731E+00  7.1284801384E+00  4.6871873005E-02  4.5639798015E-02  4.0610951295E-01
  6.3050000000E+03  2.2976687774E+00  7.1257904824E+00  4.6985051243E-02  4.5747905664E-02  4.0631324248E-01
  6.3100000000E+03  2.2999847483E+00  7.1231039722E+00  4.7098412405E-02  4.5856179087E-02  4.0651681689E-01
  6.3150000000E+03  2.3023008875E+00  7.1204206016E+00  4.7211956642E-02  4.5964618269E-02  4.0672023663E-01
  6.3200000000E+03  2.3046175233E+00  7.1177403644E+00  4.7325684103E-02  4.6073223445E-02  4.0692350214E-01
  6.3250000000E+03  2.3069346553E+00  7.1150632544E+00  4.7439594937E-02  4.6181994718E-02  4.0712661386E-01
  6.3300000000E+03  2.3092522832E+00  7.1123892657E+00  4.7553689295E-02  4.6290932191E-02  4.0732957224E-01
  6.3350000000E+03  2.3115704068E+00  7.1097183920E+00  4.7667967325E-02  4.6400035969E-02  4.0753237771E-01
  6.3400000000E+03  2.3138890258E+00  7.1070506273E+00  4.7782429177E-02  4.6509306155E-02  4.0773503070E-01
  6.3450000000E+03  2.3162081399E+00  7.1043859655E+00  4.7897075001E-02  4.6618742851E-02  4.0793753166E-01
  6.3500000000E+03  2.3185277489E+00  7.1017244006E+00  4.8011904947E-02  4.6728346162E-02  4.0813988101E-01
