#[MATERIAL DEFINITION FOR MC-GPU: interaction mean free path and sampling data from PENELOPE 2018]
#[MATERIAL NAME]
# mandible                                                      
#[NOMINAL DENSITY (g/cm^3)]
#   1.18900000
#[NUMBER OF DATA VALUES]
#  23002
#[MEAN FREE PATHS (cm) (ie, average distance between interactions)]
#[Energy (eV)     | Rayleigh        | Compton         | Photoelectric   | TOTAL (+pair prod) (cm) | Rayleigh: max cumul prob F^2]
  5.0000000000E+03  1.4415211637E+00  7.1314338998E+00  1.1148224124E-02  1.1045534845E-02  2.9779574947E-01
  5.0050000000E+03  1.4429264378E+00  7.1276226619E+00  1.1179289693E-02  1.1076103645E-02  2.9804860448E-01
  5.0100000000E+03  1.4443316765E+00  7.1238172633E+00  1.1210410168E-02  1.1106725429E-02  2.9830126719E-01
  5.0150000000E+03  1.4457376969E+00  7.1200176893E+00  1.1241585591E-02  1.1137400280E-02  2.9855373801E-01
  5.0200000000E+03  1.4471441710E+00  7.1162239250E+00  1.1272816002E-02  1.1168128215E-02  2.9880601740E-01
  5.0250000000E+03  1.4485506112E+00  7.1124359560E+00  1.1304101441E-02  1.1198909240E-02  2.9905810578E-01
  5.0300000000E+03  1.4499570174E+00  7.1086537676E+00  1.1335441951E-02  1.1229743389E-02  2.9931000359E-01
  5.0350000000E+03  1.4513633898E+00  7.1048773451E+00  1.1366837570E-02  1.1260630699E-02  2.9956171126E-01
  5.0400000000E+03  1.4527697284E+00  7.1011066742E+00  1.1398288341E-02  1.1291571203E-02  2.9981322923E-01
  5.0450000000E+03  1.4541760332E+00  7.0973417404E+00  1.1429794302E-02  1.1322564937E-02  3.0006455791E-01
  5.0500000000E+03  1.4555823042E+00  7.0935825293E+00  1.1461355496E-02  1.1353611935E-02  3.0031569775E-01
  5.0550000000E+03  1.4569885414E+00  7.0898290264E+00  1.1492971963E-02  1.1384712233E-02  3.0056664916E-01
  5.0600000000E+03  1.4584062804E+00  7.0860812176E+00  1.1524643743E-02  1.1415866572E-02  3.0081741259E-01
  5.0650000000E+03  1.4598454301E+00  7.0823390885E+00  1.1556370877E-02  1.1447075604E-02  3.0106798844E-01
  5.0700000000E+03  1.4612845778E+00  7.0786026250E+00  1.1588153406E-02  1.1478338057E-02  3.0131837715E-01
  5.0750000000E+03  1.4627237236E+00  7.0748718129E+00  1.1619991370E-02  1.1509653964E-02  3.0156857914E-01
  5.0800000000E+03  1.4641628675E+00  7.0711466382E+00  1.1651884809E-02  1.1541023362E-02  3.0181859483E-01
  5.0850000000E+03  1.4656020095E+00  7.0674853461E+00  1.1683833765E-02  1.1572446440E-02  3.0206842465E-01
  5.0900000000E+03  1.4670411495E+00  7.0638351947E+00  1.1715838277E-02  1.1603923096E-02  3.0231806901E-01
  5.0950000000E+03  1.4684802876E+00  7.0601905095E+00  1.1747898387E-02  1.1635453347E-02  3.0256752834E-01
  5.1000000000E+03  1.4699194237E+00  7.0565512771E+00  1.1780014134E-02  1.1667037230E-02  3.0281680305E-01
  5.1050000000E+03  1.4713585580E+00  7.0529174839E+00  1.1812185559E-02  1.1698674779E-02  3.0306589356E-01
  5.1100000000E+03  1.4728064428E+00  7.0492891165E+00  1.1844412704E-02  1.1730366583E-02  3.0331480029E-01
  5.1150000000E+03  1.4742544228E+00  7.0456661615E+00  1.1876695607E-02  1.1762112133E-02  3.0356352365E-01
  5.1200000000E+03  1.4757024094E+00  7.0420486055E+00  1.1909034310E-02  1.1793911457E-02  3.0381206406E-01
  5.1250000000E+03  1.4771504029E+00  7.0384364353E+00  1.1941428854E-02  1.1825764590E-02  3.0406042192E-01
  5.1300000000E+03  1.4785984031E+00  7.0348296376E+00  1.1973879277E-02  1.1857671567E-02  3.0430859766E-01
  5.1350000000E+03  1.4800464100E+00  7.0312281991E+00  1.2006385622E-02  1.1889632422E-02  3.0455659168E-01
  5.1400000000E+03  1.4814944236E+00  7.0276321068E+00  1.2038947928E-02  1.1921647190E-02  3.0480440436E-01
  5.1450000000E+03  1.4829424439E+00  7.0240413474E+00  1.2071566236E-02  1.1953715906E-02  3.0505203597E-01
  5.1500000000E+03  1.4843904710E+00  7.0204559079E+00  1.2104240585E-02  1.1985838603E-02  3.0529948695E-01
  5.1550000000E+03  1.4858404546E+00  7.0168757752E+00  1.2136971018E-02  1.2018015445E-02  3.0554675772E-01
  5.1600000000E+03  1.4872920953E+00  7.0133009364E+00  1.2169757573E-02  1.2050246447E-02  3.0579384872E-01
  5.1650000000E+03  1.4887437462E+00  7.0097655270E+00  1.2202600291E-02  1.2082531638E-02  3.0604076039E-01
  5.1700000000E+03  1.4901954074E+00  7.0062627955E+00  1.2235499213E-02  1.2114871034E-02  3.0628749316E-01
  5.1750000000E+03  1.4916470787E+00  7.0027651977E+00  1.2268454379E-02  1.2147264589E-02  3.0653404745E-01
  5.1800000000E+03  1.4930987602E+00  6.9992727211E+00  1.2301465829E-02  1.2179712336E-02  3.0678042370E-01
  5.1850000000E+03  1.4945504519E+00  6.9957853532E+00  1.2334533603E-02  1.2212214310E-02  3.0702662234E-01
  5.1900000000E+03  1.4960021538E+00  6.9923030817E+00  1.2367657742E-02  1.2244770546E-02  3.0727264380E-01
  5.1950000000E+03  1.4974538658E+00  6.9888258943E+00  1.2400838286E-02  1.2277381077E-02  3.0751848849E-01
  5.2000000000E+03  1.4989055799E+00  6.9853537786E+00  1.2434075275E-02  1.2310045939E-02  3.0776415685E-01
  5.2050000000E+03  1.5003563031E+00  6.9818867224E+00  1.2467368749E-02  1.2342765097E-02  3.0800964931E-01
  5.2100000000E+03  1.5018070353E+00  6.9784247133E+00  1.2500718750E-02  1.2375538653E-02  3.0825496628E-01
  5.2150000000E+03  1.5032577767E+00  6.9749677394E+00  1.2534125316E-02  1.2408366642E-02  3.0850010819E-01
  5.2200000000E+03  1.5047085273E+00  6.9715157884E+00  1.2567588489E-02  1.2441249097E-02  3.0874507545E-01
  5.2250000000E+03  1.5061592870E+00  6.9680688482E+00  1.2601108307E-02  1.2474186053E-02  3.0898986850E-01
  5.2300000000E+03  1.5076100558E+00  6.9646269067E+00  1.2634684813E-02  1.2507177545E-02  3.0923448774E-01
  5.2350000000E+03  1.5090608337E+00  6.9611899521E+00  1.2668318045E-02  1.2540223606E-02  3.0947893360E-01
  5.2400000000E+03  1.5105116207E+00  6.9577579721E+00  1.2702008044E-02  1.2573324270E-02  3.0972320649E-01
  5.2450000000E+03  1.5119624167E+00  6.9543309550E+00  1.2735796842E-02  1.2606520717E-02  3.0996730683E-01
  5.2500000000E+03  1.5134149848E+00  6.9509643296E+00  1.2769819823E-02  1.2639945884E-02  3.1021123503E-01
  5.2550000000E+03  1.5148703693E+00  6.9476065200E+00  1.2803900723E-02  1.2673426964E-02  3.1045499151E-01
  5.2600000000E+03  1.5163257672E+00  6.9442535236E+00  1.2838039585E-02  1.2706963784E-02  3.1069857668E-01
  5.2650000000E+03  1.5177811786E+00  6.9409053287E+00  1.2872236451E-02  1.2740556381E-02  3.1094199095E-01
  5.2700000000E+03  1.5192366034E+00  6.9375619241E+00  1.2906491364E-02  1.2774204791E-02  3.1118523473E-01
  5.2750000000E+03  1.5206920417E+00  6.9342232982E+00  1.2940804365E-02  1.2807909049E-02  3.1142830843E-01
  5.2800000000E+03  1.5221474934E+00  6.9308894399E+00  1.2975175497E-02  1.2841669192E-02  3.1167121246E-01
  5.2850000000E+03  1.5236029585E+00  6.9275603377E+00  1.3009604802E-02  1.2875485255E-02  3.1191394723E-01
  5.2900000000E+03  1.5250584371E+00  6.9242359804E+00  1.3044092322E-02  1.2909357273E-02  3.1215651314E-01
  5.2950000000E+03  1.5265139290E+00  6.9209163567E+00  1.3078638098E-02  1.2943285284E-02  3.1239891060E-01
  5.3000000000E+03  1.5279856698E+00  6.9176014555E+00  1.3113242174E-02  1.2977270493E-02  3.1264114001E-01
  5.3050000000E+03  1.5294652964E+00  6.9142912655E+00  1.3147904591E-02  1.3011312343E-02  3.1288320178E-01
  5.3100000000E+03  1.5309449599E+00  6.9109857757E+00  1.3182625391E-02  1.3045410305E-02  3.1312509631E-01
  5.3150000000E+03  1.5324246602E+00  6.9076849750E+00  1.3217404616E-02  1.3079564415E-02  3.1336682400E-01
  5.3200000000E+03  1.5339043974E+00  6.9043888523E+00  1.3252242309E-02  1.3113774709E-02  3.1360838525E-01
  5.3250000000E+03  1.5353841713E+00  6.9010973966E+00  1.3287138511E-02  1.3148041222E-02  3.1384978047E-01
  5.3300000000E+03  1.5368639819E+00  6.8978131406E+00  1.3322093264E-02  1.3182363999E-02  3.1409101004E-01
  5.3350000000E+03  1.5383438293E+00  6.8945882821E+00  1.3357106611E-02  1.3216743269E-02  3.1433207436E-01
  5.3400000000E+03  1.5398237133E+00  6.8913679501E+00  1.3392178593E-02  1.3251178867E-02  3.1457297384E-01
  5.3450000000E+03  1.5413036340E+00  6.8881521341E+00  1.3427309253E-02  1.3285670830E-02  3.1481370887E-01
  5.3500000000E+03  1.5427904894E+00  6.8849408234E+00  1.3462498632E-02  1.3320219706E-02  3.1505427984E-01
  5.3550000000E+03  1.5442784014E+00  6.8817340077E+00  1.3497746772E-02  1.3354825098E-02  3.1529468714E-01
  5.3600000000E+03  1.5457663577E+00  6.8785316763E+00  1.3533053716E-02  1.3389486965E-02  3.1553493118E-01
  5.3650000000E+03  1.5472543583E+00  6.8753338188E+00  1.3568419505E-02  1.3424205342E-02  3.1577501234E-01
  5.3700000000E+03  1.5487424031E+00  6.8721404248E+00  1.3603844181E-02  1.3458980266E-02  3.1601493100E-01
  5.3750000000E+03  1.5502304923E+00  6.8689514841E+00  1.3639327786E-02  1.3493811773E-02  3.1625468757E-01
  5.3800000000E+03  1.5517186255E+00  6.8657669861E+00  1.3674870362E-02  1.3528699896E-02  3.1649428243E-01
  5.3850000000E+03  1.5532068030E+00  6.8625869206E+00  1.3710471951E-02  1.3563644672E-02  3.1673371597E-01
  5.3900000000E+03  1.5546950246E+00  6.8594112773E+00  1.3746132595E-02  1.3598646137E-02  3.1697298857E-01
  5.3950000000E+03  1.5561832902E+00  6.8562400461E+00  1.3781852335E-02  1.3633704326E-02  3.1721210063E-01
  5.4000000000E+03  1.5576709258E+00  6.8530732165E+00  1.3817631214E-02  1.3668819221E-02  3.1745105252E-01
  5.4050000000E+03  1.5591585895E+00  6.8499107786E+00  1.3853469274E-02  1.3703990909E-02  3.1768984463E-01
  5.4100000000E+03  1.5606462965E+00  6.8467527221E+00  1.3889366555E-02  1.3739219427E-02  3.1792847734E-01
  5.4150000000E+03  1.5621340468E+00  6.8435990370E+00  1.3925323101E-02  1.3774504810E-02  3.1816695104E-01
  5.4200000000E+03  1.5636218402E+00  6.8404985572E+00  1.3961338953E-02  1.3809847291E-02  3.1840526611E-01
  5.4250000000E+03  1.5651096769E+00  6.8374087478E+00  1.3997414152E-02  1.3845246736E-02  3.1864342293E-01
  5.4300000000E+03  1.5665975566E+00  6.8343231785E+00  1.4033548741E-02  1.3880703154E-02  3.1888142187E-01
  5.4350000000E+03  1.5680854794E+00  6.8312418397E+00  1.4069742761E-02  1.3916216580E-02  3.1911926333E-01
  5.4400000000E+03  1.5695734453E+00  6.8281647217E+00  1.4105996254E-02  1.3951787049E-02  3.1935694767E-01
  5.4450000000E+03  1.5710614542E+00  6.8250918147E+00  1.4142309263E-02  1.3987414596E-02  3.1959447527E-01
  5.4500000000E+03  1.5725851381E+00  6.8220231092E+00  1.4178681827E-02  1.4023102090E-02  3.1983184650E-01
  5.4550000000E+03  1.5741091158E+00  6.8189585956E+00  1.4215113991E-02  1.4058846772E-02  3.2006906176E-01
  5.4600000000E+03  1.5756331721E+00  6.8158982644E+00  1.4251605794E-02  1.4094648658E-02  3.2030612140E-01
  5.4650000000E+03  1.5771573069E+00  6.8128421060E+00  1.4288157279E-02  1.4130507784E-02  3.2054302580E-01
  5.4700000000E+03  1.5786815202E+00  6.8097901108E+00  1.4324768488E-02  1.4166424185E-02  3.2077977533E-01
  5.4750000000E+03  1.5802058119E+00  6.8067422695E+00  1.4361439462E-02  1.4202397897E-02  3.2101637038E-01
  5.4800000000E+03  1.5817301820E+00  6.8036985726E+00  1.4398170243E-02  1.4238428954E-02  3.2125281130E-01
  5.4850000000E+03  1.5832546303E+00  6.8006590107E+00  1.4434960872E-02  1.4274517392E-02  3.2148909847E-01
  5.4900000000E+03  1.5847791569E+00  6.7976235744E+00  1.4471811392E-02  1.4310663245E-02  3.2172523225E-01
  5.4950000000E+03  1.5863037616E+00  6.7945922543E+00  1.4508721844E-02  1.4346866549E-02  3.2196121302E-01
  5.5000000000E+03  1.5878278427E+00  6.7915650412E+00  1.4545692269E-02  1.4383127289E-02  3.2219704114E-01
  5.5050000000E+03  1.5893519476E+00  6.7885657455E+00  1.4582886921E-02  1.4419606207E-02  3.2243271698E-01
  5.5100000000E+03  1.5908761296E+00  6.7855999109E+00  1.4620142305E-02  1.4456143461E-02  3.2266824091E-01
  5.5150000000E+03  1.5924003889E+00  6.7826380604E+00  1.4657458462E-02  1.4492738955E-02  3.2290361329E-01
  5.5200000000E+03  1.5939247254E+00  6.7796801850E+00  1.4694835436E-02  1.4529392724E-02  3.2313883448E-01
  5.5250000000E+03  1.5954491389E+00  6.7767262758E+00  1.4732273269E-02  1.4566104804E-02  3.2337390486E-01
  5.5300000000E+03  1.5969736295E+00  6.7737763238E+00  1.4769772004E-02  1.4602875231E-02  3.2360882477E-01
  5.5350000000E+03  1.5984981970E+00  6.7708303203E+00  1.4807331683E-02  1.4639704041E-02  3.2384359459E-01
  5.5400000000E+03  1.6000228414E+00  6.7678882564E+00  1.4844952350E-02  1.4676591270E-02  3.2407821467E-01
  5.5450000000E+03  1.6015475626E+00  6.7649501232E+00  1.4882634047E-02  1.4713536954E-02  3.2431268538E-01
  5.5500000000E+03  1.6030824040E+00  6.7620159119E+00  1.4920376817E-02  1.4750541978E-02  3.2454700707E-01
  5.5550000000E+03  1.6046207175E+00  6.7590856139E+00  1.4958180701E-02  1.4787605822E-02  3.2478118010E-01
  5.5600000000E+03  1.6061591211E+00  6.7561592203E+00  1.4996045744E-02  1.4824728236E-02  3.2501520483E-01
  5.5650000000E+03  1.6076976149E+00  6.7532367225E+00  1.5033971987E-02  1.4861909256E-02  3.2524908162E-01
  5.5700000000E+03  1.6092361986E+00  6.7503181118E+00  1.5071959474E-02  1.4899148917E-02  3.2548281083E-01
  5.5750000000E+03  1.6107748724E+00  6.7474033795E+00  1.5110008246E-02  1.4936447256E-02  3.2571639280E-01
  5.5800000000E+03  1.6123136359E+00  6.7444925170E+00  1.5148118346E-02  1.4973804307E-02  3.2594982790E-01
  5.5850000000E+03  1.6138524893E+00  6.7415855158E+00  1.5186289818E-02  1.5011220107E-02  3.2618311648E-01
  5.5900000000E+03  1.6153914324E+00  6.7386823671E+00  1.5224522702E-02  1.5048694691E-02  3.2641625889E-01
  5.5950000000E+03  1.6169304652E+00  6.7358203948E+00  1.5262817043E-02  1.5086228282E-02  3.2664925548E-01
  5.6000000000E+03  1.6184783442E+00  6.7329760011E+00  1.5301172882E-02  1.5123821565E-02  3.2688210661E-01
  5.6050000000E+03  1.6200356622E+00  6.7301353454E+00  1.5339590263E-02  1.5161474565E-02  3.2711481263E-01
  5.6100000000E+03  1.6215930881E+00  6.7272984196E+00  1.5378069227E-02  1.5199186504E-02  3.2734737388E-01
  5.6150000000E+03  1.6231506217E+00  6.7244652153E+00  1.5416609817E-02  1.5236957420E-02  3.2757979072E-01
  5.6200000000E+03  1.6247082631E+00  6.7216357243E+00  1.5455212076E-02  1.5274787347E-02  3.2781206349E-01
  5.6250000000E+03  1.6262660120E+00  6.7188099386E+00  1.5493876046E-02  1.5312676322E-02  3.2804419255E-01
  5.6300000000E+03  1.6278238684E+00  6.7159878500E+00  1.5532601769E-02  1.5350624378E-02  3.2827617828E-01
  5.6350000000E+03  1.6293818322E+00  6.7131694503E+00  1.5571389289E-02  1.5388631552E-02  3.2850802129E-01
  5.6400000000E+03  1.6309399034E+00  6.7103547315E+00  1.5610238647E-02  1.5426697880E-02  3.2873972198E-01
  5.6450000000E+03  1.6324980818E+00  6.7075436855E+00  1.5649149886E-02  1.5464823397E-02  3.2897128072E-01
  5.6500000000E+03  1.6340562744E+00  6.7047363043E+00  1.5688123048E-02  1.5503008129E-02  3.2920269788E-01
  5.6550000000E+03  1.6356139280E+00  6.7019325798E+00  1.5727158177E-02  1.5541252062E-02  3.2943397384E-01
  5.6600000000E+03  1.6371716878E+00  6.6991325041E+00  1.5766255313E-02  1.5579555290E-02  3.2966510897E-01
  5.6650000000E+03  1.6387295538E+00  6.6963360692E+00  1.5805414501E-02  1.5617917848E-02  3.2989610363E-01
  5.6700000000E+03  1.6402875259E+00  6.6935432671E+00  1.5844635781E-02  1.5656339770E-02  3.3012695821E-01
  5.6750000000E+03  1.6418456039E+00  6.6907540900E+00  1.5883919197E-02  1.5694821093E-02  3.3035767307E-01
  5.6800000000E+03  1.6434037878E+00  6.6879685300E+00  1.5923264791E-02  1.5733361852E-02  3.3058824857E-01
  5.6850000000E+03  1.6449620775E+00  6.6852222841E+00  1.5962672605E-02  1.5771962280E-02  3.3081868509E-01
  5.6900000000E+03  1.6465204729E+00  6.6824929620E+00  1.6002142682E-02  1.5810622291E-02  3.3104898299E-01
  5.6950000000E+03  1.6480789739E+00  6.6797671501E+00  1.6041675064E-02  1.5849341846E-02  3.3127914264E-01
  5.7000000000E+03  1.6496375805E+00  6.6770448406E+00  1.6081269793E-02  1.5888120980E-02  3.3150916439E-01
  5.7050000000E+03  1.6511963285E+00  6.6743260261E+00  1.6120926911E-02  1.5926959732E-02  3.3173904862E-01
  5.7100000000E+03  1.6527551996E+00  6.6716106990E+00  1.6160646462E-02  1.5965858134E-02  3.3196879569E-01
  5.7150000000E+03  1.6543141759E+00  6.6688988518E+00  1.6200428487E-02  1.6004816222E-02  3.3219840596E-01
  5.7200000000E+03  1.6558732575E+00  6.6661904770E+00  1.6240273028E-02  1.6043834029E-02  3.3242787979E-01
  5.7250000000E+03  1.6574324443E+00  6.6634855671E+00  1.6280180128E-02  1.6082911590E-02  3.3265721754E-01
  5.7300000000E+03  1.6589917361E+00  6.6607841146E+00  1.6320149829E-02  1.6122048942E-02  3.3288641958E-01
  5.7350000000E+03  1.6605511330E+00  6.6580861122E+00  1.6360182174E-02  1.6161246118E-02  3.3311548625E-01
  5.7400000000E+03  1.6621106347E+00  6.6553915524E+00  1.6400277204E-02  1.6200503154E-02  3.3334441792E-01
  5.7450000000E+03  1.6636702413E+00  6.6527004279E+00  1.6440434963E-02  1.6239820084E-02  3.3357321495E-01
  5.7500000000E+03  1.6652299527E+00  6.6500127312E+00  1.6480655491E-02  1.6279196944E-02  3.3380187769E-01
  5.7550000000E+03  1.6667902993E+00  6.6473284550E+00  1.6520938832E-02  1.6318633820E-02  3.3403040649E-01
  5.7600000000E+03  1.6683546446E+00  6.6446475920E+00  1.6561285027E-02  1.6358131070E-02  3.3425880172E-01
  5.7650000000E+03  1.6699190988E+00  6.6419701350E+00  1.6601694119E-02  1.6397688358E-02  3.3448706372E-01
  5.7700000000E+03  1.6714836619E+00  6.6392960766E+00  1.6642166150E-02  1.6437305717E-02  3.3471519286E-01
  5.7750000000E+03  1.6730483338E+00  6.6366459002E+00  1.6682701162E-02  1.6476983310E-02  3.3494318947E-01
  5.7800000000E+03  1.6746131143E+00  6.6340256934E+00  1.6723299198E-02  1.6516721211E-02  3.3517105392E-01
  5.7850000000E+03  1.6761780034E+00  6.6314087853E+00  1.6763960299E-02  1.6556519292E-02  3.3539878655E-01
  5.7900000000E+03  1.6777430010E+00  6.6287951690E+00  1.6804684508E-02  1.6596377587E-02  3.3562638771E-01
  5.7950000000E+03  1.6793081070E+00  6.6261848375E+00  1.6845471867E-02  1.6636296131E-02  3.3585385776E-01
  5.8000000000E+03  1.6808733214E+00  6.6235777838E+00  1.6886322417E-02  1.6676274958E-02  3.3608119703E-01
  5.8050000000E+03  1.6824386440E+00  6.6209740011E+00  1.6927236202E-02  1.6716314105E-02  3.3630840589E-01
  5.8100000000E+03  1.6840041394E+00  6.6183734823E+00  1.6968213263E-02  1.6756413611E-02  3.3653548467E-01
  5.8150000000E+03  1.6855698152E+00  6.6157762206E+00  1.7009253642E-02  1.6796573512E-02  3.3676243373E-01
  5.8200000000E+03  1.6871355991E+00  6.6131822092E+00  1.7050357382E-02  1.6836793835E-02  3.3698925340E-01
  5.8250000000E+03  1.6887014910E+00  6.6105914411E+00  1.7091524524E-02  1.6877074616E-02  3.3721594403E-01
  5.8300000000E+03  1.6902674909E+00  6.6080039095E+00  1.7132755111E-02  1.6917415889E-02  3.3744250597E-01
  5.8350000000E+03  1.6918335987E+00  6.6054196077E+00  1.7174049184E-02  1.6957817689E-02  3.3766893956E-01
  5.8400000000E+03  1.6933998143E+00  6.6028385287E+00  1.7215406786E-02  1.6998280049E-02  3.3789524514E-01
  5.8450000000E+03  1.6949661375E+00  6.6002606660E+00  1.7256827959E-02  1.7038803006E-02  3.3812142305E-01
  5.8500000000E+03  1.6965325684E+00  6.5976860126E+00  1.7298312745E-02  1.7079386592E-02  3.3834747364E-01
  5.8550000000E+03  1.6980991068E+00  6.5951145619E+00  1.7339861185E-02  1.7120030843E-02  3.3857339723E-01
  5.8600000000E+03  1.6996657527E+00  6.5925463071E+00  1.7381473322E-02  1.7160735793E-02  3.3879919419E-01
  5.8650000000E+03  1.7012319928E+00  6.5899812416E+00  1.7423149199E-02  1.7201501424E-02  3.3902486483E-01
  5.8700000000E+03  1.7027981441E+00  6.5874576874E+00  1.7464888856E-02  1.7242328065E-02  3.3925040950E-01
  5.8750000000E+03  1.7043644018E+00  6.5849441212E+00  1.7506692336E-02  1.7283215558E-02  3.3947582854E-01
  5.8800000000E+03  1.7059307659E+00  6.5824336512E+00  1.7548559680E-02  1.7324163890E-02  3.3970112229E-01
  5.8850000000E+03  1.7074972364E+00  6.5799262709E+00  1.7590490932E-02  1.7365173095E-02  3.3992629107E-01
  5.8900000000E+03  1.7090638131E+00  6.5774219740E+00  1.7632486132E-02  1.7406243208E-02  3.4015133523E-01
  5.8950000000E+03  1.7106304960E+00  6.5749207539E+00  1.7674545323E-02  1.7447374264E-02  3.4037625510E-01
  5.9000000000E+03  1.7121972849E+00  6.5724226043E+00  1.7716668547E-02  1.7488566296E-02  3.4060105101E-01
  5.9050000000E+03  1.7137641799E+00  6.5699275189E+00  1.7758855845E-02  1.7529819339E-02  3.4082572329E-01
  5.9100000000E+03  1.7153311807E+00  6.5674354913E+00  1.7801107260E-02  1.7571133427E-02  3.4105027228E-01
  5.9150000000E+03  1.7168982874E+00  6.5649465152E+00  1.7843422833E-02  1.7612508594E-02  3.4127469832E-01
  5.9200000000E+03  1.7184670149E+00  6.5624605842E+00  1.7885802607E-02  1.7653945035E-02  3.4149900172E-01
  5.9250000000E+03  1.7200360641E+00  6.5599776921E+00  1.7928246622E-02  1.7695442647E-02  3.4172318282E-01
  5.9300000000E+03  1.7216052207E+00  6.5574978326E+00  1.7970754922E-02  1.7737001442E-02  3.4194724196E-01
  5.9350000000E+03  1.7231744844E+00  6.5550209994E+00  1.8013327548E-02  1.7778621455E-02  3.4217117945E-01
  5.9400000000E+03  1.7247438552E+00  6.5525471863E+00  1.8055964541E-02  1.7820302718E-02  3.4239499563E-01
  5.9450000000E+03  1.7263133330E+00  6.5500763871E+00  1.8098665945E-02  1.7862045267E-02  3.4261869083E-01
  5.9500000000E+03  1.7278829178E+00  6.5476085956E+00  1.8141431799E-02  1.7903849136E-02  3.4284226537E-01
  5.9550000000E+03  1.7294526094E+00  6.5451438056E+00  1.8184262148E-02  1.7945714358E-02  3.4306571958E-01
  5.9600000000E+03  1.7310224079E+00  6.5426820109E+00  1.8227157031E-02  1.7987640968E-02  3.4328905378E-01
  5.9650000000E+03  1.7325923130E+00  6.5402649052E+00  1.8270116491E-02  1.8029629316E-02  3.4351226830E-01
  5.9700000000E+03  1.7341623247E+00  6.5378523775E+00  1.8313140570E-02  1.8071679136E-02  3.4373536346E-01
  5.9750000000E+03  1.7357561414E+00  6.5354427583E+00  1.8356229310E-02  1.8113793028E-02  3.4395833959E-01
  5.9800000000E+03  1.7373518726E+00  6.5330360417E+00  1.8399382752E-02  1.8155968660E-02  3.4418119701E-01
  5.9850000000E+03  1.7389477353E+00  6.5306322217E+00  1.8442600938E-02  1.8198205870E-02  3.4440393604E-01
  5.9900000000E+03  1.7405437294E+00  6.5282312924E+00  1.8485883911E-02  1.8240504694E-02  3.4462655700E-01
  5.9950000000E+03  1.7421398548E+00  6.5258332480E+00  1.8529231710E-02  1.8282865164E-02  3.4484906022E-01
  6.0000000000E+03  1.7437361113E+00  6.5234380826E+00  1.8572644380E-02  1.8325287315E-02  3.4507144602E-01
  6.0050000000E+03  1.7453324990E+00  6.5210457903E+00  1.8616536687E-02  1.8368174916E-02  3.4529371471E-01
  6.0100000000E+03  1.7469290177E+00  6.5186563653E+00  1.8660495575E-02  1.8411125814E-02  3.4551586661E-01
  6.0150000000E+03  1.7485256673E+00  6.5162698018E+00  1.8704521089E-02  1.8454140045E-02  3.4573790205E-01
  6.0200000000E+03  1.7501224477E+00  6.5138860940E+00  1.8748613271E-02  1.8497217644E-02  3.4595982134E-01
  6.0250000000E+03  1.7517193588E+00  6.5115052361E+00  1.8792772168E-02  1.8540358648E-02  3.4618162479E-01
  6.0300000000E+03  1.7533196588E+00  6.5091272223E+00  1.8836997823E-02  1.8583563460E-02  3.4640331273E-01
  6.0350000000E+03  1.7549205372E+00  6.5067520469E+00  1.8881290280E-02  1.8626831801E-02  3.4662488548E-01
  6.0400000000E+03  1.7565215496E+00  6.5043797041E+00  1.8925649584E-02  1.8670163658E-02  3.4684634333E-01
  6.0450000000E+03  1.7581226960E+00  6.5020101883E+00  1.8970075780E-02  1.8713559067E-02  3.4706768662E-01
  6.0500000000E+03  1.7597239763E+00  6.4996434936E+00  1.9014568910E-02  1.8757018064E-02  3.4728891566E-01
  6.0550000000E+03  1.7613253904E+00  6.4972796145E+00  1.9059129021E-02  1.8800540685E-02  3.4751003075E-01
  6.0600000000E+03  1.7629269382E+00  6.4949505909E+00  1.9103756155E-02  1.8844127235E-02  3.4773103222E-01
  6.0650000000E+03  1.7645286196E+00  6.4926338072E+00  1.9148450358E-02  1.8887777565E-02  3.4795192037E-01
  6.0700000000E+03  1.7661304345E+00  6.4903197581E+00  1.9193211673E-02  1.8931491629E-02  3.4817269552E-01
  6.0750000000E+03  1.7677323829E+00  6.4880084380E+00  1.9238040145E-02  1.8975269465E-02  3.4839335798E-01
  6.0800000000E+03  1.7693344645E+00  6.4856998416E+00  1.9282935818E-02  1.9019111107E-02  3.4861390806E-01
  6.0850000000E+03  1.7709553356E+00  6.4833939634E+00  1.9327898736E-02  1.9063018754E-02  3.4883434606E-01
  6.0900000000E+03  1.7725832623E+00  6.4810907979E+00  1.9372928944E-02  1.9106991095E-02  3.4905467231E-01
  6.0950000000E+03  1.7742113476E+00  6.4787903398E+00  1.9418026486E-02  1.9151027371E-02  3.4927488710E-01
  6.1000000000E+03  1.7758395914E+00  6.4764925836E+00  1.9463191405E-02  1.9195127616E-02  3.4949499075E-01
  6.1050000000E+03  1.7774679936E+00  6.4741975239E+00  1.9508423747E-02  1.9239291867E-02  3.4971498356E-01
  6.1100000000E+03  1.7790965540E+00  6.4719051555E+00  1.9553723555E-02  1.9283520160E-02  3.4993486585E-01
  6.1150000000E+03  1.7807252726E+00  6.4696154728E+00  1.9599090873E-02  1.9327812529E-02  3.5015463791E-01
  6.1200000000E+03  1.7823541492E+00  6.4673284707E+00  1.9644525747E-02  1.9372169012E-02  3.5037430006E-01
  6.1250000000E+03  1.7839831837E+00  6.4650441437E+00  1.9690028219E-02  1.9416589644E-02  3.5059385260E-01
  6.1300000000E+03  1.7856123759E+00  6.4627624866E+00  1.9735598334E-02  1.9461074460E-02  3.5081329583E-01
  6.1350000000E+03  1.7872417259E+00  6.4604834940E+00  1.9781236136E-02  1.9505623496E-02  3.5103263007E-01
  6.1400000000E+03  1.7888711630E+00  6.4582071607E+00  1.9826941670E-02  1.9550236780E-02  3.5125185561E-01
  6.1450000000E+03  1.7905006800E+00  6.4559334814E+00  1.9872714979E-02  1.9594914346E-02  3.5147097276E-01
  6.1500000000E+03  1.7921303541E+00  6.4536624509E+00  1.9918556108E-02  1.9639656239E-02  3.5168998181E-01
  6.1550000000E+03  1.7937601853E+00  6.4514048886E+00  1.9964465100E-02  1.9684462595E-02  3.5190888308E-01
  6.1600000000E+03  1.7953901735E+00  6.4491788481E+00  2.0010442001E-02  1.9729333621E-02  3.5212767687E-01
  6.1650000000E+03  1.7970203185E+00  6.4469553809E+00  2.0056486853E-02  1.9774269084E-02  3.5234636347E-01
  6.1700000000E+03  1.7986506203E+00  6.4447344818E+00  2.0102599701E-02  1.9819269020E-02  3.5256494319E-01
  6.1750000000E+03  1.8002810787E+00  6.4425161460E+00  2.0148780589E-02  1.9864333465E-02  3.5278341633E-01
  6.1800000000E+03  1.8019116937E+00  6.4403003683E+00  2.0195029562E-02  1.9909462453E-02  3.5300178318E-01
  6.1850000000E+03  1.8035424650E+00  6.4380871437E+00  2.0241346662E-02  1.9954656020E-02  3.5322004405E-01
  6.1900000000E+03  1.8051733927E+00  6.4358764672E+00  2.0287731935E-02  1.9999914202E-02  3.5343819924E-01
  6.1950000000E+03  1.8068043993E+00  6.4336683339E+00  2.0334185425E-02  2.0045237024E-02  3.5365624904E-01
  6.2000000000E+03  1.8084349837E+00  6.4314627387E+00  2.0380707174E-02  2.0090624461E-02  3.5387419375E-01
  6.2050000000E+03  1.8100657235E+00  6.4292596767E+00  2.0427297228E-02  2.0136076619E-02  3.5409203366E-01
  6.2100000000E+03  1.8116966185E+00  6.4270591430E+00  2.0473955631E-02  2.0181593532E-02  3.5430976909E-01
  6.2150000000E+03  1.8133276685E+00  6.4248611326E+00  2.0520682425E-02  2.0227175236E-02  3.5452740031E-01
  6.2200000000E+03  1.8149588736E+00  6.4226656406E+00  2.0567477657E-02  2.0272821767E-02  3.5474492764E-01
  6.2250000000E+03  1.8165902335E+00  6.4204726621E+00  2.0614341368E-02  2.0318533159E-02  3.5496235135E-01
  6.2300000000E+03  1.8182217482E+00  6.4182821922E+00  2.0661273604E-02  2.0364309449E-02  3.5517967175E-01
  6.2350000000E+03  1.8198534176E+00  6.4160942260E+00  2.0708274409E-02  2.0410150671E-02  3.5539688914E-01
  6.2400000000E+03  1.8214852415E+00  6.4139087586E+00  2.0755343826E-02  2.0456056861E-02  3.5561400379E-01
  6.2450000000E+03  1.8231172198E+00  6.4117257853E+00  2.0802481899E-02  2.0502028053E-02  3.5583101602E-01
  6.2500000000E+03  1.8247493525E+00  6.4095453011E+00  2.0849688672E-02  2.0548064284E-02  3.5604792611E-01
  6.2550000000E+03  1.8263813598E+00  6.4073847534E+00  2.0896964189E-02  2.0594165732E-02  3.5626473435E-01
  6.2600000000E+03  1.8280133731E+00  6.4052471894E+00  2.0944308495E-02  2.0640332484E-02  3.5648144103E-01
  6.2650000000E+03  1.8296455400E+00  6.4031120442E+00  2.0991721633E-02  2.0686564383E-02  3.5669804645E-01
  6.2700000000E+03  1.8312778603E+00  6.4009793133E+00  2.1039203647E-02  2.0732861463E-02  3.5691455090E-01
  6.2750000000E+03  1.8329103340E+00  6.3988489919E+00  2.1086754580E-02  2.0779223760E-02  3.5713095467E-01
  6.2800000000E+03  1.8345429609E+00  6.3967210755E+00  2.1134374478E-02  2.0825651309E-02  3.5734725804E-01
  6.2850000000E+03  1.8361757410E+00  6.3945955594E+00  2.1182063383E-02  2.0872144144E-02  3.5756346131E-01
  6.2900000000E+03  1.8378086741E+00  6.3924724390E+00  2.1229821339E-02  2.0918702302E-02  3.5777956477E-01
  6.2950000000E+03  1.8394417602E+00  6.3903517097E+00  2.1277648391E-02  2.0965325816E-02  3.5799556870E-01
  6.3000000000E+03  1.8410749991E+00  6.3882333669E+00  2.1325544583E-02  2.1012014722E-02  3.5821147340E-01
  6.3050000000E+03  1.8427083907E+00  6.3861174061E+00  2.1373509957E-02  2.1058769054E-02  3.5842727914E-01
  6.3100000000E+03  1.8443418517E+00  6.3840038226E+00  2.1421544559E-02  2.1105588838E-02  3.5864298622E-01
  6.3150000000E+03  1.8459745804E+00  6.3818926119E+00  2.1469648431E-02  2.1152474001E-02  3.5885859493E-01
  6.3200000000E+03  1.8476074606E+00  6.3797837695E+00  2.1517821618E-02  2.1199424696E-02  3.5907410555E-01
  6.3250000000E+03  1.8492404922E+00  6.3776772909E+00  2.1566064164E-02  2.1246440956E-02  3.5928951836E-01
  6.3300000000E+03  1.8508736749E+00  6.3755731715E+00  2.1614376111E-02  2.1293522816E-02  3.5950483365E-01
  6.3350000000E+03  1.8525070088E+00  6.3734714068E+00  2.1662757505E-02  2.1340670311E-02  3.5972005171E-01
  6.3400000000E+03  1.8541404938E+00  6.3713719924E+00  2.1711208389E-02  2.1387883476E-02  3.5993517283E-01
  6.3450000000E+03  1.8557741296E+00  6.3692749237E+00  2.1759728807E-02  2.1435162345E-02  3.6015019727E-01
  6.3500000000E+03  1.8574079163E+00  6.3671801964E+00  2.1808318802E-02  2.1482506954E-02  3.6036512534E-01
