#[MATERIAL DEFINITION FOR MC-GPU: interaction mean free path and sampling data from PENELOPE 2018]
#[MATERIAL NAME]
# scapulae                                                      
#[NOMINAL DENSITY (g/cm^3)]
#   1.12800000
#[NUMBER OF DATA VALUES]
#  23002
#[MEAN FREE PATHS (cm) (ie, average distance between interactions)]
#[Energy (eV)     | Rayleigh        | Compton         | Photoelectric   | TOTAL (+pair prod) (cm) | Rayleigh: max cumul prob F^2]
  5.0000000000E+03  1.6397490848E+00  7.3223301794E+00  1.4424741812E-02  1.4271086646E-02  3.0690660913E-01
  5.0050000000E+03  1.6414256676E+00  7.3185300422E+00  1.4465419409E-02  1.4311014102E-02  3.0715946819E-01
  5.0100000000E+03  1.6431022879E+00  7.3147356686E+00  1.4506170219E-02  1.4351011832E-02  3.0741212687E-01
  5.0150000000E+03  1.6447792080E+00  7.3109470443E+00  1.4546994300E-02  1.4391079903E-02  3.0766458566E-01
  5.0200000000E+03  1.6464563226E+00  7.3071641548E+00  1.4587891707E-02  1.4431218356E-02  3.0791684504E-01
  5.0250000000E+03  1.6481334750E+00  7.3033869856E+00  1.4628862498E-02  1.4471427226E-02  3.0816890550E-01
  5.0300000000E+03  1.6498106654E+00  7.2996155225E+00  1.4669906728E-02  1.4511706561E-02  3.0842076751E-01
  5.0350000000E+03  1.6514878937E+00  7.2958497512E+00  1.4711024454E-02  1.4552056408E-02  3.0867243157E-01
  5.0400000000E+03  1.6531651597E+00  7.2920896575E+00  1.4752215733E-02  1.4592476815E-02  3.0892389814E-01
  5.0450000000E+03  1.6548424636E+00  7.2883352271E+00  1.4793480621E-02  1.4632967829E-02  3.0917516771E-01
  5.0500000000E+03  1.6565198052E+00  7.2845864460E+00  1.4834819174E-02  1.4673529499E-02  3.0942624076E-01
  5.0550000000E+03  1.6581971845E+00  7.2808433000E+00  1.4876231450E-02  1.4714161871E-02  3.0967711776E-01
  5.0600000000E+03  1.6598851321E+00  7.2771057752E+00  1.4917717503E-02  1.4754865825E-02  3.0992779918E-01
  5.0650000000E+03  1.6615926956E+00  7.2733738575E+00  1.4959277391E-02  1.4795642135E-02  3.1017828551E-01
  5.0700000000E+03  1.6633003282E+00  7.2696475331E+00  1.5000911170E-02  1.4836489309E-02  3.1042857720E-01
  5.0750000000E+03  1.6650080301E+00  7.2659267880E+00  1.5042618896E-02  1.4877407395E-02  3.1067867474E-01
  5.0800000000E+03  1.6667158009E+00  7.2622116083E+00  1.5084400626E-02  1.4918396439E-02  3.1092857859E-01
  5.0850000000E+03  1.6684236408E+00  7.2585613588E+00  1.5126256416E-02  1.4959456741E-02  3.1117828922E-01
  5.0900000000E+03  1.6701315496E+00  7.2549222867E+00  1.5168186321E-02  1.5000588125E-02  3.1142780709E-01
  5.0950000000E+03  1.6718395273E+00  7.2512886093E+00  1.5210190400E-02  1.5041790612E-02  3.1167713268E-01
  5.1000000000E+03  1.6735475737E+00  7.2476603134E+00  1.5252268707E-02  1.5083064251E-02  3.1192626644E-01
  5.1050000000E+03  1.6752556890E+00  7.2440373857E+00  1.5294421299E-02  1.5124409088E-02  3.1217520884E-01
  5.1100000000E+03  1.6769701677E+00  7.2404198130E+00  1.5336648232E-02  1.5165825686E-02  3.1242396034E-01
  5.1150000000E+03  1.6786847853E+00  7.2368075822E+00  1.5378949563E-02  1.5207313585E-02  3.1267252140E-01
  5.1200000000E+03  1.6803994783E+00  7.2332006802E+00  1.5421325347E-02  1.5248872829E-02  3.1292089249E-01
  5.1250000000E+03  1.6821142464E+00  7.2295990939E+00  1.5463775641E-02  1.5290503465E-02  3.1316907405E-01
  5.1300000000E+03  1.6838290897E+00  7.2260028104E+00  1.5506300501E-02  1.5332205538E-02  3.1341706654E-01
  5.1350000000E+03  1.6855440081E+00  7.2224118166E+00  1.5548899982E-02  1.5373979097E-02  3.1366487043E-01
  5.1400000000E+03  1.6872590015E+00  7.2188260996E+00  1.5591574143E-02  1.5415824189E-02  3.1391248611E-01
  5.1450000000E+03  1.6889740699E+00  7.2152456466E+00  1.5634323037E-02  1.5457740859E-02  3.1415991385E-01
  5.1500000000E+03  1.6906892131E+00  7.2116704448E+00  1.5677146722E-02  1.5499729157E-02  3.1440715411E-01
  5.1550000000E+03  1.6924064984E+00  7.2081004813E+00  1.5720045253E-02  1.5541789302E-02  3.1465420738E-01
  5.1600000000E+03  1.6941256086E+00  7.2045357434E+00  1.5763018687E-02  1.5583921316E-02  3.1490107414E-01
  5.1650000000E+03  1.6958447974E+00  7.2010109927E+00  1.5806067079E-02  1.5626125264E-02  3.1514775488E-01
  5.1700000000E+03  1.6975640648E+00  7.1975193561E+00  1.5849190486E-02  1.5668401163E-02  3.1539425006E-01
  5.1750000000E+03  1.6992834108E+00  7.1940327852E+00  1.5892388964E-02  1.5710748929E-02  3.1564056017E-01
  5.1800000000E+03  1.7010028353E+00  7.1905512678E+00  1.5935662568E-02  1.5753168607E-02  3.1588668569E-01
  5.1850000000E+03  1.7027223382E+00  7.1870747918E+00  1.5979011355E-02  1.5795660246E-02  3.1613262709E-01
  5.1900000000E+03  1.7044419195E+00  7.1836033450E+00  1.6022435381E-02  1.5838223892E-02  3.1637838485E-01
  5.1950000000E+03  1.7061615790E+00  7.1801369152E+00  1.6065934701E-02  1.5880859591E-02  3.1662395943E-01
  5.2000000000E+03  1.7078813185E+00  7.1766754905E+00  1.6109509372E-02  1.5923567390E-02  3.1686935131E-01
  5.2050000000E+03  1.7096013614E+00  7.1732190588E+00  1.6153159449E-02  1.5966347356E-02  3.1711456097E-01
  5.2100000000E+03  1.7113214826E+00  7.1697676080E+00  1.6196884988E-02  1.6009199515E-02  3.1735958885E-01
  5.2150000000E+03  1.7130416820E+00  7.1663211263E+00  1.6240686046E-02  1.6052123914E-02  3.1760443545E-01
  5.2200000000E+03  1.7147619595E+00  7.1628796018E+00  1.6284562678E-02  1.6095120600E-02  3.1784910121E-01
  5.2250000000E+03  1.7164823151E+00  7.1594430225E+00  1.6328514940E-02  1.6138189618E-02  3.1809358661E-01
  5.2300000000E+03  1.7182027488E+00  7.1560113766E+00  1.6372542887E-02  1.6181331016E-02  3.1833789212E-01
  5.2350000000E+03  1.7199232603E+00  7.1525846524E+00  1.6416646576E-02  1.6224544840E-02  3.1858201818E-01
  5.2400000000E+03  1.7216438498E+00  7.1491628382E+00  1.6460826063E-02  1.6267831137E-02  3.1882596526E-01
  5.2450000000E+03  1.7233645170E+00  7.1457459221E+00  1.6505129196E-02  1.6311236628E-02  3.1906973383E-01
  5.2500000000E+03  1.7250873351E+00  7.1423902998E+00  1.6549710082E-02  1.6354912283E-02  3.1931332433E-01
  5.2550000000E+03  1.7268135324E+00  7.1390434985E+00  1.6594368139E-02  1.6398662027E-02  3.1955673724E-01
  5.2600000000E+03  1.7285398129E+00  7.1357014460E+00  1.6639103424E-02  1.6442485593E-02  3.1979997299E-01
  5.2650000000E+03  1.7302661765E+00  7.1323641312E+00  1.6683915997E-02  1.6486383030E-02  3.2004303206E-01
  5.2700000000E+03  1.7319926232E+00  7.1290315429E+00  1.6728805916E-02  1.6530354385E-02  3.2028591488E-01
  5.2750000000E+03  1.7337191529E+00  7.1257036698E+00  1.6773773238E-02  1.6574399707E-02  3.2052862192E-01
  5.2800000000E+03  1.7354457654E+00  7.1223805009E+00  1.6818818022E-02  1.6618519045E-02  3.2077115362E-01
  5.2850000000E+03  1.7371724607E+00  7.1190620251E+00  1.6863940326E-02  1.6662712446E-02  3.2101351043E-01
  5.2900000000E+03  1.7388992388E+00  7.1157482312E+00  1.6909140208E-02  1.6706979960E-02  3.2125569281E-01
  5.2950000000E+03  1.7406260996E+00  7.1124391083E+00  1.6954417727E-02  1.6751321635E-02  3.2149770119E-01
  5.3000000000E+03  1.7423677552E+00  7.1091346454E+00  1.6999772940E-02  1.6795738885E-02  3.2173953603E-01
  5.3050000000E+03  1.7441166285E+00  7.1058348316E+00  1.7045205907E-02  1.6840231067E-02  3.2198119776E-01
  5.3100000000E+03  1.7458656072E+00  7.1025396559E+00  1.7090716684E-02  1.6884797570E-02  3.2222268684E-01
  5.3150000000E+03  1.7476146912E+00  7.0992491074E+00  1.7136305330E-02  1.6929438441E-02  3.2246400371E-01
  5.3200000000E+03  1.7493638804E+00  7.0959631754E+00  1.7181971904E-02  1.6974153730E-02  3.2270514880E-01
  5.3250000000E+03  1.7511131746E+00  7.0926818489E+00  1.7227716462E-02  1.7018943485E-02  3.2294612255E-01
  5.3300000000E+03  1.7528625739E+00  7.0894077030E+00  1.7273539064E-02  1.7063807768E-02  3.2318692542E-01
  5.3350000000E+03  1.7546120781E+00  7.0861937973E+00  1.7319439768E-02  1.7108746938E-02  3.2342755782E-01
  5.3400000000E+03  1.7563616871E+00  7.0829843572E+00  1.7365418631E-02  1.7153760720E-02  3.2366802020E-01
  5.3450000000E+03  1.7581114008E+00  7.0797793724E+00  1.7411475711E-02  1.7198849165E-02  3.2390831300E-01
  5.3500000000E+03  1.7598666619E+00  7.0765788325E+00  1.7457611067E-02  1.7244012841E-02  3.2414843664E-01
  5.3550000000E+03  1.7616228325E+00  7.0733827272E+00  1.7503824756E-02  1.7289251356E-02  3.2438839157E-01
  5.3600000000E+03  1.7633791143E+00  7.0701910462E+00  1.7550116837E-02  1.7334564680E-02  3.2462817821E-01
  5.3650000000E+03  1.7651355070E+00  7.0670037793E+00  1.7596487367E-02  1.7379952863E-02  3.2486779699E-01
  5.3700000000E+03  1.7668920105E+00  7.0638209162E+00  1.7642936405E-02  1.7425415951E-02  3.2510724835E-01
  5.3750000000E+03  1.7686486248E+00  7.0606424468E+00  1.7689464009E-02  1.7470953993E-02  3.2534653270E-01
  5.3800000000E+03  1.7704053497E+00  7.0574683610E+00  1.7736070235E-02  1.7516567036E-02  3.2558565049E-01
  5.3850000000E+03  1.7721621852E+00  7.0542986487E+00  1.7782755143E-02  1.7562255129E-02  3.2582460213E-01
  5.3900000000E+03  1.7739191312E+00  7.0511332996E+00  1.7829518790E-02  1.7608018319E-02  3.2606338806E-01
  5.3950000000E+03  1.7756761876E+00  7.0479723039E+00  1.7876361234E-02  1.7653856653E-02  3.2630200868E-01
  5.4000000000E+03  1.7774334215E+00  7.0448156515E+00  1.7923282534E-02  1.7699770187E-02  3.2654046444E-01
  5.4050000000E+03  1.7791907673E+00  7.0416633324E+00  1.7970282746E-02  1.7745758961E-02  3.2677875574E-01
  5.4100000000E+03  1.7809482232E+00  7.0385153367E+00  1.8017361928E-02  1.7791823023E-02  3.2701688302E-01
  5.4150000000E+03  1.7827057892E+00  7.0353716544E+00  1.8064520140E-02  1.7837962421E-02  3.2725484668E-01
  5.4200000000E+03  1.7844634652E+00  7.0322818788E+00  1.8111757437E-02  1.7884177522E-02  3.2749264715E-01
  5.4250000000E+03  1.7862212510E+00  7.0292028157E+00  1.8159073879E-02  1.7930468099E-02  3.2773028485E-01
  5.4300000000E+03  1.7879791466E+00  7.0261279354E+00  1.8206469523E-02  1.7976834159E-02  3.2796776020E-01
  5.4350000000E+03  1.7897371519E+00  7.0230572284E+00  1.8253944426E-02  1.8023275748E-02  3.2820507360E-01
  5.4400000000E+03  1.7914952668E+00  7.0199906853E+00  1.8301498647E-02  1.8069792913E-02  3.2844222547E-01
  5.4450000000E+03  1.7932534912E+00  7.0169282964E+00  1.8349132244E-02  1.8116385703E-02  3.2867921622E-01
  5.4500000000E+03  1.7950515002E+00  7.0138700525E+00  1.8396845273E-02  1.8163058226E-02  3.2891604628E-01
  5.4550000000E+03  1.7968499004E+00  7.0108159442E+00  1.8444637793E-02  1.8209806523E-02  3.2915271605E-01
  5.4600000000E+03  1.7986484522E+00  7.0077659619E+00  1.8492509862E-02  1.8256630617E-02  3.2938922593E-01
  5.4650000000E+03  1.8004471556E+00  7.0047200964E+00  1.8540461537E-02  1.8303530555E-02  3.2962557634E-01
  5.4700000000E+03  1.8022460103E+00  7.0016783384E+00  1.8588492876E-02  1.8350506384E-02  3.2986176769E-01
  5.4750000000E+03  1.8040450162E+00  6.9986406786E+00  1.8636603936E-02  1.8397558152E-02  3.3009780039E-01
  5.4800000000E+03  1.8058441734E+00  6.9956071078E+00  1.8684794775E-02  1.8444685906E-02  3.3033367483E-01
  5.4850000000E+03  1.8076434815E+00  6.9925776166E+00  1.8733065452E-02  1.8491889693E-02  3.3056939143E-01
  5.4900000000E+03  1.8094429405E+00  6.9895521959E+00  1.8781416023E-02  1.8539169561E-02  3.3080495059E-01
  5.4950000000E+03  1.8112425502E+00  6.9865308366E+00  1.8829846546E-02  1.8586525557E-02  3.3104035271E-01
  5.5000000000E+03  1.8130431648E+00  6.9835135294E+00  1.8878357079E-02  1.8633957818E-02  3.3127559820E-01
  5.5050000000E+03  1.8148440071E+00  6.9805244270E+00  1.8927166120E-02  1.8681679294E-02  3.3151068745E-01
  5.5100000000E+03  1.8166450008E+00  6.9775691538E+00  1.8976056196E-02  1.8729478123E-02  3.3174562087E-01
  5.5150000000E+03  1.8184461457E+00  6.9746178107E+00  1.9025027367E-02  1.8777354141E-02  3.3198039886E-01
  5.5200000000E+03  1.8202474418E+00  6.9716703887E+00  1.9074079691E-02  1.8825307395E-02  3.3221502181E-01
  5.5250000000E+03  1.8220488889E+00  6.9687268791E+00  1.9123213229E-02  1.8873337935E-02  3.3244949012E-01
  5.5300000000E+03  1.8238504869E+00  6.9657872732E+00  1.9172428037E-02  1.8921445809E-02  3.3268380419E-01
  5.5350000000E+03  1.8256522357E+00  6.9628515623E+00  1.9221724177E-02  1.8969631064E-02  3.3291796441E-01
  5.5400000000E+03  1.8274541351E+00  6.9599197378E+00  1.9271101706E-02  1.9017893750E-02  3.3315197117E-01
  5.5450000000E+03  1.8292561850E+00  6.9569917909E+00  1.9320560684E-02  1.9066233914E-02  3.3338582488E-01
  5.5500000000E+03  1.8310675569E+00  6.9540677131E+00  1.9370101170E-02  1.9114652605E-02  3.3361952592E-01
  5.5550000000E+03  1.8328821806E+00  6.9511474958E+00  1.9419723223E-02  1.9163149215E-02  3.3385307469E-01
  5.5600000000E+03  1.8346969676E+00  6.9482311304E+00  1.9469426901E-02  1.9211723458E-02  3.3408647157E-01
  5.5650000000E+03  1.8365119177E+00  6.9453186083E+00  1.9519212265E-02  1.9260375381E-02  3.3431971696E-01
  5.5700000000E+03  1.8383270309E+00  6.9424099211E+00  1.9569079372E-02  1.9309105034E-02  3.3455281124E-01
  5.5750000000E+03  1.8401423070E+00  6.9395050603E+00  1.9619028281E-02  1.9357912464E-02  3.3478575481E-01
  5.5800000000E+03  1.8419577459E+00  6.9366040174E+00  1.9669059052E-02  1.9406797718E-02  3.3501854804E-01
  5.5850000000E+03  1.8437733475E+00  6.9337067840E+00  1.9719171744E-02  1.9455760846E-02  3.3525119133E-01
  5.5900000000E+03  1.8455891115E+00  6.9308133516E+00  1.9769366415E-02  1.9504801894E-02  3.3548368505E-01
  5.5950000000E+03  1.8474050380E+00  6.9279615085E+00  1.9819643124E-02  1.9553921213E-02  3.3571602961E-01
  5.6000000000E+03  1.8492281553E+00  6.9251273650E+00  1.9870001930E-02  1.9603119453E-02  3.3594822537E-01
  5.6050000000E+03  1.8510589397E+00  6.9222969087E+00  1.9920442893E-02  1.9652396613E-02  3.3618027272E-01
  5.6100000000E+03  1.8528899017E+00  6.9194701315E+00  1.9970966070E-02  1.9701751901E-02  3.3641217204E-01
  5.6150000000E+03  1.8547210413E+00  6.9166470254E+00  2.0021571521E-02  1.9751185365E-02  3.3664392372E-01
  5.6200000000E+03  1.8565523583E+00  6.9138275824E+00  2.0072259304E-02  1.9800697054E-02  3.3687552813E-01
  5.6250000000E+03  1.8583838524E+00  6.9110117944E+00  2.0123029479E-02  1.9850287014E-02  3.3710698565E-01
  5.6300000000E+03  1.8602155237E+00  6.9081996535E+00  2.0173882104E-02  1.9899955294E-02  3.3733829671E-01
  5.6350000000E+03  1.8620473719E+00  6.9053911517E+00  2.0224817238E-02  1.9949701942E-02  3.3756946198E-01
  5.6400000000E+03  1.8638793970E+00  6.9025862811E+00  2.0275834939E-02  1.9999527004E-02  3.3780048188E-01
  5.6450000000E+03  1.8657115987E+00  6.8997850337E+00  2.0326935267E-02  2.0049430530E-02  3.3803135682E-01
  5.6500000000E+03  1.8675440042E+00  6.8969874017E+00  2.0378118280E-02  2.0099412568E-02  3.3826208721E-01
  5.6550000000E+03  1.8693767754E+00  6.8941933773E+00  2.0429384037E-02  2.0149473187E-02  3.3849267344E-01
  5.6600000000E+03  1.8712097231E+00  6.8914029525E+00  2.0480732596E-02  2.0199612412E-02  3.3872311592E-01
  5.6650000000E+03  1.8730428472E+00  6.8886161196E+00  2.0532164017E-02  2.0249830290E-02  3.3895341505E-01
  5.6700000000E+03  1.8748761475E+00  6.8858328709E+00  2.0583678358E-02  2.0300126868E-02  3.3918357122E-01
  5.6750000000E+03  1.8767096238E+00  6.8830531984E+00  2.0635275677E-02  2.0350502195E-02  3.3941358483E-01
  5.6800000000E+03  1.8785432761E+00  6.8802770945E+00  2.0686956034E-02  2.0400956317E-02  3.3964345628E-01
  5.6850000000E+03  1.8803771042E+00  6.8775406237E+00  2.0738719487E-02  2.0451489602E-02  3.3987318597E-01
  5.6900000000E+03  1.8822111079E+00  6.8748211667E+00  2.0790566095E-02  2.0502101900E-02  3.4010277429E-01
  5.6950000000E+03  1.8840452872E+00  6.8721051722E+00  2.0842495916E-02  2.0552793140E-02  3.4033222164E-01
  5.7000000000E+03  1.8858796418E+00  6.8693926327E+00  2.0894509008E-02  2.0603563369E-02  3.4056152840E-01
  5.7050000000E+03  1.8877140629E+00  6.8666835409E+00  2.0946605432E-02  2.0654412622E-02  3.4079069497E-01
  5.7100000000E+03  1.8895486058E+00  6.8639778894E+00  2.0998785244E-02  2.0705340953E-02  3.4101972174E-01
  5.7150000000E+03  1.8913833235E+00  6.8612756707E+00  2.1051048504E-02  2.0756348414E-02  3.4124860911E-01
  5.7200000000E+03  1.8932182158E+00  6.8585768776E+00  2.1103395270E-02  2.0807435053E-02  3.4147735745E-01
  5.7250000000E+03  1.8950532827E+00  6.8558815027E+00  2.1155825601E-02  2.0858600918E-02  3.4170596716E-01
  5.7300000000E+03  1.8968885240E+00  6.8531895386E+00  2.1208339555E-02  2.0909846055E-02  3.4193443862E-01
  5.7350000000E+03  1.8987239396E+00  6.8505009782E+00  2.1260937192E-02  2.0961170512E-02  3.4216277223E-01
  5.7400000000E+03  1.9005595293E+00  6.8478158141E+00  2.1313618568E-02  2.1012574335E-02  3.4239096836E-01
  5.7450000000E+03  1.9023952929E+00  6.8451340391E+00  2.1366383743E-02  2.1064057571E-02  3.4261902740E-01
  5.7500000000E+03  1.9042312304E+00  6.8424556460E+00  2.1419232776E-02  2.1115620268E-02  3.4284694974E-01
  5.7550000000E+03  1.9060678596E+00  6.8397806275E+00  2.1472165725E-02  2.1167262537E-02  3.4307473575E-01
  5.7600000000E+03  1.9079084630E+00  6.8371089765E+00  2.1525182647E-02  2.1218984830E-02  3.4330238582E-01
  5.7650000000E+03  1.9097492444E+00  6.8344406859E+00  2.1578283603E-02  2.1270786728E-02  3.4352990033E-01
  5.7700000000E+03  1.9115902037E+00  6.8317757485E+00  2.1631468650E-02  2.1322668278E-02  3.4375727966E-01
  5.7750000000E+03  1.9134313407E+00  6.8291348125E+00  2.1684737846E-02  2.1374629729E-02  3.4398452419E-01
  5.7800000000E+03  1.9152726553E+00  6.8265240154E+00  2.1738091250E-02  2.1426671191E-02  3.4421163429E-01
  5.7850000000E+03  1.9171141475E+00  6.8239164726E+00  2.1791528921E-02  2.1478792450E-02  3.4443861034E-01
  5.7900000000E+03  1.9189558169E+00  6.8213121772E+00  2.1845050916E-02  2.1530993553E-02  3.4466545272E-01
  5.7950000000E+03  1.9207976636E+00  6.8187111224E+00  2.1898657295E-02  2.1583274545E-02  3.4489216181E-01
  5.8000000000E+03  1.9226396873E+00  6.8161133014E+00  2.1952348115E-02  2.1635635475E-02  3.4511873797E-01
  5.8050000000E+03  1.9244818879E+00  6.8135187075E+00  2.2006123435E-02  2.1688076387E-02  3.4534518158E-01
  5.8100000000E+03  1.9263243434E+00  6.8109273337E+00  2.2059983313E-02  2.1740597340E-02  3.4557149302E-01
  5.8150000000E+03  1.9281670629E+00  6.8083391733E+00  2.2113927807E-02  2.1793198381E-02  3.4579767266E-01
  5.8200000000E+03  1.9300099591E+00  6.8057542197E+00  2.2167956977E-02  2.1845879544E-02  3.4602372086E-01
  5.8250000000E+03  1.9318530318E+00  6.8031724660E+00  2.2222070879E-02  2.1898640878E-02  3.4624963800E-01
  5.8300000000E+03  1.9336962810E+00  6.8005939056E+00  2.2276269573E-02  2.1951482428E-02  3.4647542444E-01
  5.8350000000E+03  1.9355397065E+00  6.7980185318E+00  2.2330553117E-02  2.2004404240E-02  3.4670108056E-01
  5.8400000000E+03  1.9373833081E+00  6.7954463379E+00  2.2384921568E-02  2.2057406362E-02  3.4692660672E-01
  5.8450000000E+03  1.9392270857E+00  6.7928773173E+00  2.2439374986E-02  2.2110488839E-02  3.4715200329E-01
  5.8500000000E+03  1.9410710393E+00  6.7903114634E+00  2.2493913428E-02  2.2163651718E-02  3.4737727063E-01
  5.8550000000E+03  1.9429151686E+00  6.7877487695E+00  2.2548536953E-02  2.2216895045E-02  3.4760240911E-01
  5.8600000000E+03  1.9447594735E+00  6.7851892290E+00  2.2603245619E-02  2.2270218867E-02  3.4782741910E-01
  5.8650000000E+03  1.9466035704E+00  6.7826328355E+00  2.2658039483E-02  2.2323623178E-02  3.4805230095E-01
  5.8700000000E+03  1.9484476960E+00  6.7801181297E+00  2.2712918605E-02  2.2377108477E-02  3.4827705504E-01
  5.8750000000E+03  1.9502919962E+00  6.7776134096E+00  2.2767883043E-02  2.2430674488E-02  3.4850168171E-01
  5.8800000000E+03  1.9521364709E+00  6.7751117444E+00  2.2822932853E-02  2.2484321182E-02  3.4872618134E-01
  5.8850000000E+03  1.9539811201E+00  6.7726131279E+00  2.2878068096E-02  2.2538048606E-02  3.4895055428E-01
  5.8900000000E+03  1.9558259436E+00  6.7701175535E+00  2.2933288828E-02  2.2591856805E-02  3.4917480089E-01
  5.8950000000E+03  1.9576709412E+00  6.7676250152E+00  2.2988595109E-02  2.2645745826E-02  3.4939892153E-01
  5.9000000000E+03  1.9595161128E+00  6.7651355066E+00  2.3043986995E-02  2.2699715714E-02  3.4962291656E-01
  5.9050000000E+03  1.9613614583E+00  6.7626490214E+00  2.3099464546E-02  2.2753766517E-02  3.4984678633E-01
  5.9100000000E+03  1.9632069776E+00  6.7601655535E+00  2.3155027819E-02  2.2807898278E-02  3.5007053120E-01
  5.9150000000E+03  1.9650526704E+00  6.7576850967E+00  2.3210676872E-02  2.2862111045E-02  3.5029415153E-01
  5.9200000000E+03  1.9668997118E+00  6.7552076447E+00  2.3266411763E-02  2.2916405023E-02  3.5051764768E-01
  5.9250000000E+03  1.9687470941E+00  6.7527331913E+00  2.3322232551E-02  2.2970780122E-02  3.5074101998E-01
  5.9300000000E+03  1.9705946511E+00  6.7502617305E+00  2.3378139294E-02  2.3025236366E-02  3.5096426881E-01
  5.9350000000E+03  1.9724423825E+00  6.7477932561E+00  2.3434132049E-02  2.3079773799E-02  3.5118739450E-01
  5.9400000000E+03  1.9742902883E+00  6.7453277619E+00  2.3490210874E-02  2.3134392468E-02  3.5141039742E-01
  5.9450000000E+03  1.9761383683E+00  6.7428652419E+00  2.3546375828E-02  2.3189092419E-02  3.5163327791E-01
  5.9500000000E+03  1.9779866224E+00  6.7404056900E+00  2.3602626969E-02  2.3243873697E-02  3.5185603632E-01
  5.9550000000E+03  1.9798350505E+00  6.7379491000E+00  2.3658964353E-02  2.3298736348E-02  3.5207867300E-01
  5.9600000000E+03  1.9816836524E+00  6.7354954661E+00  2.3715388041E-02  2.3353680417E-02  3.5230118830E-01
  5.9650000000E+03  1.9835324280E+00  6.7330866210E+00  2.3771898089E-02  2.3408706456E-02  3.5252358257E-01
  5.9700000000E+03  1.9853813772E+00  6.7306823211E+00  2.3828494555E-02  2.3463814029E-02  3.5274585616E-01
  5.9750000000E+03  1.9872515024E+00  6.7282808915E+00  2.3885177497E-02  2.3519006105E-02  3.5296800941E-01
  5.9800000000E+03  1.9891234043E+00  6.7258823263E+00  2.3941946973E-02  2.3574280027E-02  3.5319004267E-01
  5.9850000000E+03  1.9909955028E+00  6.7234866198E+00  2.3998803042E-02  2.3629635623E-02  3.5341195628E-01
  5.9900000000E+03  1.9928677977E+00  6.7210937661E+00  2.4055745760E-02  2.3685072935E-02  3.5363375058E-01
  5.9950000000E+03  1.9947402889E+00  6.7187037595E+00  2.4112775186E-02  2.3740592011E-02  3.5385542593E-01
  6.0000000000E+03  1.9966129762E+00  6.7163165942E+00  2.4169891378E-02  2.3796192896E-02  3.5407698265E-01
  6.0050000000E+03  1.9984858594E+00  6.7139322645E+00  2.4227618357E-02  2.3852383494E-02  3.5429842111E-01
  6.0100000000E+03  2.0003589385E+00  6.7115507646E+00  2.4285434305E-02  2.3908657960E-02  3.5451974162E-01
  6.0150000000E+03  2.0022322134E+00  6.7091720889E+00  2.4343339283E-02  2.3965016343E-02  3.5474094455E-01
  6.0200000000E+03  2.0041056837E+00  6.7067962317E+00  2.4401333353E-02  2.4021458691E-02  3.5496203022E-01
  6.0250000000E+03  2.0059793495E+00  6.7044231872E+00  2.4459416575E-02  2.4077985052E-02  3.5518299898E-01
  6.0300000000E+03  2.0078571361E+00  6.7020529498E+00  2.4517589012E-02  2.4134596041E-02  3.5540385116E-01
  6.0350000000E+03  2.0097356575E+00  6.6996855139E+00  2.4575850723E-02  2.4191291221E-02  3.5562458711E-01
  6.0400000000E+03  2.0116143785E+00  6.6973208739E+00  2.4634201772E-02  2.4248070562E-02  3.5584520716E-01
  6.0450000000E+03  2.0134932990E+00  6.6949590241E+00  2.4692642218E-02  2.4304934114E-02  3.5606571164E-01
  6.0500000000E+03  2.0153724188E+00  6.6925999589E+00  2.4751172124E-02  2.4361881924E-02  3.5628610089E-01
  6.0550000000E+03  2.0172517378E+00  6.6902436728E+00  2.4809791549E-02  2.4418914041E-02  3.5650637525E-01
  6.0600000000E+03  2.0191312559E+00  6.6879222696E+00  2.4868500557E-02  2.4476030941E-02  3.5672653506E-01
  6.0650000000E+03  2.0210109729E+00  6.6856130897E+00  2.4927299206E-02  2.4533232376E-02  3.5694658064E-01
  6.0700000000E+03  2.0228908886E+00  6.6833066091E+00  2.4986187560E-02  2.4590518266E-02  3.5716651233E-01
  6.0750000000E+03  2.0247710030E+00  6.6810028223E+00  2.5045165679E-02  2.4647888659E-02  3.5738633046E-01
  6.0800000000E+03  2.0266513158E+00  6.6787017240E+00  2.5104233625E-02  2.4705343604E-02  3.5760603536E-01
  6.0850000000E+03  2.0285536901E+00  6.6764033089E+00  2.5163391457E-02  2.4762886405E-02  3.5782562737E-01
  6.0900000000E+03  2.0304643760E+00  6.6741075716E+00  2.5222639239E-02  2.4820515084E-02  3.5804510682E-01
  6.0950000000E+03  2.0323752914E+00  6.6718145068E+00  2.5281977030E-02  2.4878228487E-02  3.5826447403E-01
  6.1000000000E+03  2.0342864360E+00  6.6695241092E+00  2.5341404891E-02  2.4936026663E-02  3.5848372934E-01
  6.1050000000E+03  2.0361978096E+00  6.6672363735E+00  2.5400922885E-02  2.4993909658E-02  3.5870287307E-01
  6.1100000000E+03  2.0381094122E+00  6.6649512944E+00  2.5460531072E-02  2.5051877522E-02  3.5892190555E-01
  6.1150000000E+03  2.0400212435E+00  6.6626688668E+00  2.5520229513E-02  2.5109930301E-02  3.5914082711E-01
  6.1200000000E+03  2.0419333034E+00  6.6603890853E+00  2.5580018269E-02  2.5168068043E-02  3.5935963807E-01
  6.1250000000E+03  2.0438455917E+00  6.6581119447E+00  2.5639897401E-02  2.5226290796E-02  3.5957833877E-01
  6.1300000000E+03  2.0457581083E+00  6.6558374399E+00  2.5699866971E-02  2.5284598609E-02  3.5979692953E-01
  6.1350000000E+03  2.0476708530E+00  6.6535655656E+00  2.5759927039E-02  2.5342991527E-02  3.6001541067E-01
  6.1400000000E+03  2.0495835952E+00  6.6512963166E+00  2.5820077666E-02  2.5401469565E-02  3.6023378252E-01
  6.1450000000E+03  2.0514963112E+00  6.6490296878E+00  2.5880318914E-02  2.5460032764E-02  3.6045204540E-01
  6.1500000000E+03  2.0534092544E+00  6.6467656740E+00  2.5940650843E-02  2.5518681212E-02  3.6067019963E-01
  6.1550000000E+03  2.0553224245E+00  6.6445151110E+00  2.6001073515E-02  2.5577415117E-02  3.6088824555E-01
  6.1600000000E+03  2.0572358214E+00  6.6422960803E+00  2.6061586990E-02  2.5636234798E-02  3.6110618346E-01
  6.1650000000E+03  2.0591494449E+00  6.6400795902E+00  2.6122191330E-02  2.5695139876E-02  3.6132401369E-01
  6.1700000000E+03  2.0610632950E+00  6.6378656358E+00  2.6182886595E-02  2.5754130397E-02  3.6154173656E-01
  6.1750000000E+03  2.0629773714E+00  6.6356542120E+00  2.6243672847E-02  2.5813206409E-02  3.6175935239E-01
  6.1800000000E+03  2.0648916740E+00  6.6334453140E+00  2.6304550145E-02  2.5872367960E-02  3.6197686151E-01
  6.1850000000E+03  2.0668062026E+00  6.6312389368E+00  2.6365518552E-02  2.5931615097E-02  3.6219426422E-01
  6.1900000000E+03  2.0687209570E+00  6.6290350755E+00  2.6426578128E-02  2.5990947867E-02  3.6241156085E-01
  6.1950000000E+03  2.0706358889E+00  6.6268337252E+00  2.6487728934E-02  2.6050366310E-02  3.6262875172E-01
  6.2000000000E+03  2.0725506849E+00  6.6246348811E+00  2.6548971032E-02  2.6109870423E-02  3.6284583715E-01
  6.2050000000E+03  2.0744657058E+00  6.6224385382E+00  2.6610304481E-02  2.6169460310E-02  3.6306281744E-01
  6.2100000000E+03  2.0763809516E+00  6.6202446918E+00  2.6671729342E-02  2.6229136019E-02  3.6327969293E-01
  6.2150000000E+03  2.0782964221E+00  6.6180533369E+00  2.6733245678E-02  2.6288897596E-02  3.6349646391E-01
  6.2200000000E+03  2.0802121170E+00  6.6158644687E+00  2.6794853548E-02  2.6348745089E-02  3.6371313072E-01
  6.2250000000E+03  2.0821280363E+00  6.6136780824E+00  2.6856553013E-02  2.6408678545E-02  3.6392969365E-01
  6.2300000000E+03  2.0840441798E+00  6.6114941732E+00  2.6918344134E-02  2.6468698010E-02  3.6414615303E-01
  6.2350000000E+03  2.0859605474E+00  6.6093127364E+00  2.6980226973E-02  2.6528803533E-02  3.6436250918E-01
  6.2400000000E+03  2.0878771389E+00  6.6071337671E+00  2.7042201589E-02  2.6588995158E-02  3.6457876239E-01
  6.2450000000E+03  2.0897939541E+00  6.6049572606E+00  2.7104268044E-02  2.6649272935E-02  3.6479491299E-01
  6.2500000000E+03  2.0917109929E+00  6.6027832121E+00  2.7166426398E-02  2.6709636909E-02  3.6501096129E-01
  6.2550000000E+03  2.0936278445E+00  6.6006290868E+00  2.7228676713E-02  2.6770087347E-02  3.6522690760E-01
  6.2600000000E+03  2.0955447015E+00  6.5984979356E+00  2.7291019048E-02  2.6830624382E-02  3.6544275222E-01
  6.2650000000E+03  2.0974617811E+00  6.5963691732E+00  2.7353453465E-02  2.6891247761E-02  3.6565849548E-01
  6.2700000000E+03  2.0993790829E+00  6.5942427950E+00  2.7415980025E-02  2.6951957529E-02  3.6587413767E-01
  6.2750000000E+03  2.1012966070E+00  6.5921187964E+00  2.7478598788E-02  2.7012753733E-02  3.6608967912E-01
  6.2800000000E+03  2.1032143531E+00  6.5899971729E+00  2.7541309815E-02  2.7073636419E-02  3.6630512012E-01
  6.2850000000E+03  2.1051323211E+00  6.5878779199E+00  2.7604113167E-02  2.7134605636E-02  3.6652046098E-01
  6.2900000000E+03  2.1070505108E+00  6.5857610329E+00  2.7667008904E-02  2.7195661428E-02  3.6673570202E-01
  6.2950000000E+03  2.1089689220E+00  6.5836465075E+00  2.7729997087E-02  2.7256803844E-02  3.6695084354E-01
  6.3000000000E+03  2.1108875547E+00  6.5815343389E+00  2.7793077777E-02  2.7318032928E-02  3.6716588585E-01
  6.3050000000E+03  2.1128064087E+00  6.5794245229E+00  2.7856251034E-02  2.7379348728E-02  3.6738082925E-01
  6.3100000000E+03  2.1147254006E+00  6.5773170549E+00  2.7919516920E-02  2.7440751277E-02  3.6759567405E-01
  6.3150000000E+03  2.1166437279E+00  6.5752119304E+00  2.7982875494E-02  2.7502240485E-02  3.6781042055E-01
  6.3200000000E+03  2.1185622750E+00  6.5731091449E+00  2.8046326818E-02  2.7563816546E-02  3.6802506906E-01
  6.3250000000E+03  2.1204810419E+00  6.5710086941E+00  2.8109870952E-02  2.7625479509E-02  3.6823961989E-01
  6.3300000000E+03  2.1224000283E+00  6.5689105735E+00  2.8173507956E-02  2.7687229418E-02  3.6845407333E-01
  6.3350000000E+03  2.1243192341E+00  6.5668147786E+00  2.8237237892E-02  2.7749066320E-02  3.6866842969E-01
  6.3400000000E+03  2.1262386591E+00  6.5647213051E+00  2.8301060820E-02  2.7810990261E-02  3.6888268927E-01
  6.3450000000E+03  2.1281583032E+00  6.5626301485E+00  2.8364976800E-02  2.7873001288E-02  3.6909685238E-01
  6.3500000000E+03  2.1300781663E+00  6.5605413045E+00  2.8428985894E-02  2.7935099446E-02  3.6931091931E-01
