#[MATERIAL DEFINITION FOR MC-GPU: interaction mean free path and sampling data from PENELOPE 2018]
#[MATERIAL NAME]
# clavicle                                                      
#[NOMINAL DENSITY (g/cm^3)]
#   1.19100000
#[NUMBER OF DATA VALUES]
#  23002
#[MEAN FREE PATHS (cm) (ie, average distance between interactions)]
#[Energy (eV)     | Rayleigh        | Compton         | Photoelectric   | TOTAL (+pair prod) (cm) | Rayleigh: max cumul prob F^2]
  5.0000000000E+03  1.4371574594E+00  7.1182347263E+00  1.1028136329E-02  1.0927354917E-02  2.9704281220E-01
  5.0050000000E+03  1.4385552082E+00  7.1144387609E+00  1.1058844180E-02  1.0957575489E-02  2.9729561828E-01
  5.0100000000E+03  1.4399529186E+00  7.1106486069E+00  1.1089606244E-02  1.0987848390E-02  2.9754823387E-01
  5.0150000000E+03  1.4413496198E+00  7.1068642499E+00  1.1120422561E-02  1.1018173596E-02  2.9780065940E-01
  5.0200000000E+03  1.4427457014E+00  7.1030856750E+00  1.1151293171E-02  1.1048551164E-02  2.9805289530E-01
  5.0250000000E+03  1.4441417434E+00  7.0993128678E+00  1.1182218113E-02  1.1078981164E-02  2.9830494201E-01
  5.0300000000E+03  1.4455377459E+00  7.0955458138E+00  1.1213197429E-02  1.1109463629E-02  2.9855679994E-01
  5.0350000000E+03  1.4469337088E+00  7.0917844983E+00  1.1244231158E-02  1.1139998594E-02  2.9880846952E-01
  5.0400000000E+03  1.4483296322E+00  7.0880289070E+00  1.1275319340E-02  1.1170586094E-02  2.9905995119E-01
  5.0450000000E+03  1.4497255162E+00  7.0842790256E+00  1.1306462015E-02  1.1201226162E-02  2.9931124536E-01
  5.0500000000E+03  1.4511213607E+00  7.0805348397E+00  1.1337659223E-02  1.1231918834E-02  2.9956235246E-01
  5.0550000000E+03  1.4525171659E+00  7.0767963350E+00  1.1368911005E-02  1.1262664144E-02  2.9981327291E-01
  5.0600000000E+03  1.4539248783E+00  7.0730634973E+00  1.1400217399E-02  1.1293462846E-02  3.0006400714E-01
  5.0650000000E+03  1.4553547598E+00  7.0693363124E+00  1.1431578447E-02  1.1324315605E-02  3.0031455556E-01
  5.0700000000E+03  1.4567846347E+00  7.0656147662E+00  1.1462994188E-02  1.1355221121E-02  3.0056491859E-01
  5.0750000000E+03  1.4582145028E+00  7.0618988446E+00  1.1494464663E-02  1.1386179429E-02  3.0081509665E-01
  5.0800000000E+03  1.4596443643E+00  7.0581885336E+00  1.1525989910E-02  1.1417190562E-02  3.0106509016E-01
  5.0850000000E+03  1.4610742192E+00  7.0545416043E+00  1.1557569970E-02  1.1448254709E-02  3.0131489953E-01
  5.0900000000E+03  1.4625040673E+00  7.0509057441E+00  1.1589204883E-02  1.1479371766E-02  3.0156452518E-01
  5.0950000000E+03  1.4639339089E+00  7.0472753248E+00  1.1620894689E-02  1.1510541754E-02  3.0181396753E-01
  5.1000000000E+03  1.4653637438E+00  7.0436503330E+00  1.1652639428E-02  1.1541764708E-02  3.0206322699E-01
  5.1050000000E+03  1.4667935720E+00  7.0400307553E+00  1.1684439139E-02  1.1573040660E-02  3.0231230396E-01
  5.1100000000E+03  1.4682320366E+00  7.0364165782E+00  1.1716293863E-02  1.1604370187E-02  3.0256119886E-01
  5.1150000000E+03  1.4696705902E+00  7.0328077885E+00  1.1748203639E-02  1.1635752790E-02  3.0280991211E-01
  5.1200000000E+03  1.4711091458E+00  7.0292043729E+00  1.1780168507E-02  1.1667188500E-02  3.0305844410E-01
  5.1250000000E+03  1.4725477032E+00  7.0256063182E+00  1.1812188507E-02  1.1698677350E-02  3.0330679526E-01
  5.1300000000E+03  1.4739862626E+00  7.0220136110E+00  1.1844263678E-02  1.1730219375E-02  3.0355496598E-01
  5.1350000000E+03  1.4754248238E+00  7.0184262384E+00  1.1876394062E-02  1.1761814609E-02  3.0380295667E-01
  5.1400000000E+03  1.4768633868E+00  7.0148441871E+00  1.1908579697E-02  1.1793463085E-02  3.0405076769E-01
  5.1450000000E+03  1.4783019518E+00  7.0112674442E+00  1.1940820623E-02  1.1825164839E-02  3.0429839932E-01
  5.1500000000E+03  1.4797405186E+00  7.0076959965E+00  1.1973116879E-02  1.1856919903E-02  3.0454585197E-01
  5.1550000000E+03  1.4811809888E+00  7.0041298313E+00  1.2005468507E-02  1.1888728435E-02  3.0479312606E-01
  5.1600000000E+03  1.4826230702E+00  7.0005689354E+00  1.2037875545E-02  1.1920590450E-02  3.0504022204E-01
  5.1650000000E+03  1.4840651569E+00  6.9970472140E+00  1.2070338033E-02  1.1952505979E-02  3.0528714033E-01
  5.1700000000E+03  1.4855072489E+00  6.9935579613E+00  1.2102856011E-02  1.1984475039E-02  3.0553388136E-01
  5.1750000000E+03  1.4869493462E+00  6.9900738189E+00  1.2135429519E-02  1.2016497582E-02  3.0578044555E-01
  5.1800000000E+03  1.4883914487E+00  6.9865947745E+00  1.2168058595E-02  1.2048573645E-02  3.0602683334E-01
  5.1850000000E+03  1.4898335565E+00  6.9831208157E+00  1.2200743281E-02  1.2080703259E-02  3.0627304515E-01
  5.1900000000E+03  1.4912756696E+00  6.9796519302E+00  1.2233483616E-02  1.2112886460E-02  3.0651908140E-01
  5.1950000000E+03  1.4927177879E+00  6.9761881056E+00  1.2266279639E-02  1.2145123282E-02  3.0676494252E-01
  5.2000000000E+03  1.4941599145E+00  6.9727293298E+00  1.2299131389E-02  1.2177413757E-02  3.0701062892E-01
  5.2050000000E+03  1.4956024225E+00  6.9692755905E+00  1.2332038908E-02  1.2209757946E-02  3.0725614104E-01
  5.2100000000E+03  1.4970449362E+00  6.9658268756E+00  1.2365002233E-02  1.2242155856E-02  3.0750147928E-01
  5.2150000000E+03  1.4984874554E+00  6.9623831729E+00  1.2398021405E-02  1.2274607522E-02  3.0774664407E-01
  5.2200000000E+03  1.4999299803E+00  6.9589444704E+00  1.2431096464E-02  1.2307112977E-02  3.0799163583E-01
  5.2250000000E+03  1.5013725107E+00  6.9555107560E+00  1.2464227449E-02  1.2339672256E-02  3.0823645497E-01
  5.2300000000E+03  1.5028150467E+00  6.9520820177E+00  1.2497414399E-02  1.2372285391E-02  3.0848110191E-01
  5.2350000000E+03  1.5042575883E+00  6.9486582436E+00  1.2530657355E-02  1.2404952416E-02  3.0872557706E-01
  5.2400000000E+03  1.5057001355E+00  6.9452394218E+00  1.2563956355E-02  1.2437673366E-02  3.0896988083E-01
  5.2450000000E+03  1.5071426883E+00  6.9418255403E+00  1.2597353246E-02  1.2470489243E-02  3.0921401365E-01
  5.2500000000E+03  1.5085864155E+00  6.9384717330E+00  1.2630982811E-02  1.2503532372E-02  3.0945797591E-01
  5.2550000000E+03  1.5100320097E+00  6.9351266986E+00  1.2664669565E-02  1.2536630658E-02  3.0970176803E-01
  5.2600000000E+03  1.5114776123E+00  6.9317864557E+00  1.2698413550E-02  1.2569783998E-02  3.0994539042E-01
  5.2650000000E+03  1.5129232234E+00  6.9284509929E+00  1.2732214809E-02  1.2602992425E-02  3.1018884349E-01
  5.2700000000E+03  1.5143688430E+00  6.9251202990E+00  1.2766073381E-02  1.2636255976E-02  3.1043212764E-01
  5.2750000000E+03  1.5158144710E+00  6.9217943624E+00  1.2799989309E-02  1.2669574686E-02  3.1067524329E-01
  5.2800000000E+03  1.5172601074E+00  6.9184731720E+00  1.2833962634E-02  1.2702948591E-02  3.1091819083E-01
  5.2850000000E+03  1.5187057522E+00  6.9151567165E+00  1.2867993399E-02  1.2736377725E-02  3.1116097067E-01
  5.2900000000E+03  1.5201514055E+00  6.9118449846E+00  1.2902081643E-02  1.2769862124E-02  3.1140358321E-01
  5.2950000000E+03  1.5215970672E+00  6.9085379652E+00  1.2936227409E-02  1.2803401824E-02  3.1164602886E-01
  5.3000000000E+03  1.5230598445E+00  6.9052356472E+00  1.2970430738E-02  1.2836998075E-02  3.1188830802E-01
  5.3050000000E+03  1.5245309254E+00  6.9019380193E+00  1.3004691672E-02  1.2870650295E-02  3.1213042109E-01
  5.3100000000E+03  1.5260020393E+00  6.8986450706E+00  1.3039010252E-02  1.2904357935E-02  3.1237236846E-01
  5.3150000000E+03  1.5274731861E+00  6.8953567900E+00  1.3073386520E-02  1.2938121031E-02  3.1261415054E-01
  5.3200000000E+03  1.5289443659E+00  6.8920731666E+00  1.3107820516E-02  1.2971939617E-02  3.1285576772E-01
  5.3250000000E+03  1.5304155787E+00  6.8887941892E+00  1.3142312283E-02  1.3005813728E-02  3.1309722039E-01
  5.3300000000E+03  1.5318868243E+00  6.8855223810E+00  1.3176861862E-02  1.3039743409E-02  3.1333850897E-01
  5.3350000000E+03  1.5333581028E+00  6.8823097380E+00  1.3211469293E-02  1.3073728883E-02  3.1357963383E-01
  5.3400000000E+03  1.5348294141E+00  6.8791016014E+00  1.3246134620E-02  1.3107769990E-02  3.1382059537E-01
  5.3450000000E+03  1.5363007583E+00  6.8758979606E+00  1.3280857882E-02  1.3141866765E-02  3.1406139399E-01
  5.3500000000E+03  1.5377789567E+00  6.8726988051E+00  1.3315639121E-02  1.3176019744E-02  3.1430203007E-01
  5.3550000000E+03  1.5392581964E+00  6.8695041245E+00  1.3350478379E-02  1.3210228540E-02  3.1454250401E-01
  5.3600000000E+03  1.5407374765E+00  6.8663139083E+00  1.3385375697E-02  1.3244493113E-02  3.1478281620E-01
  5.3650000000E+03  1.5422167970E+00  6.8631281461E+00  1.3420331115E-02  1.3278813499E-02  3.1502296702E-01
  5.3700000000E+03  1.5436961578E+00  6.8599468276E+00  1.3455344677E-02  1.3313189733E-02  3.1526295686E-01
  5.3750000000E+03  1.5451755589E+00  6.8567699425E+00  1.3490416422E-02  1.3347621849E-02  3.1550278612E-01
  5.3800000000E+03  1.5466550002E+00  6.8535974804E+00  1.3525546393E-02  1.3382109884E-02  3.1574245517E-01
  5.3850000000E+03  1.5481344818E+00  6.8504294311E+00  1.3560734629E-02  1.3416653872E-02  3.1598196440E-01
  5.3900000000E+03  1.5496140036E+00  6.8472657843E+00  1.3595981174E-02  1.3451253847E-02  3.1622131420E-01
  5.3950000000E+03  1.5510935655E+00  6.8441065300E+00  1.3631286067E-02  1.3485909845E-02  3.1646050495E-01
  5.4000000000E+03  1.5525724467E+00  6.8409516578E+00  1.3666649351E-02  1.3520621846E-02  3.1669953703E-01
  5.4050000000E+03  1.5540513511E+00  6.8378011578E+00  1.3702071065E-02  1.3555389938E-02  3.1693841082E-01
  5.4100000000E+03  1.5555302948E+00  6.8346550197E+00  1.3737551253E-02  1.3590214156E-02  3.1717712670E-01
  5.4150000000E+03  1.5570092778E+00  6.8315132335E+00  1.3773089954E-02  1.3625094537E-02  3.1741568506E-01
  5.4200000000E+03  1.5584883000E+00  6.8284245178E+00  1.3808687211E-02  1.3660031309E-02  3.1765408627E-01
  5.4250000000E+03  1.5599673615E+00  6.8253464382E+00  1.3844343063E-02  1.3695024339E-02  3.1789233070E-01
  5.4300000000E+03  1.5614464621E+00  6.8222725798E+00  1.3880057553E-02  1.3730073639E-02  3.1813041875E-01
  5.4350000000E+03  1.5629256019E+00  6.8192029330E+00  1.3915830721E-02  1.3765179241E-02  3.1836835077E-01
  5.4400000000E+03  1.5644047808E+00  6.8161374882E+00  1.3951662610E-02  1.3800341181E-02  3.1860612716E-01
  5.4450000000E+03  1.5658839988E+00  6.8130762356E+00  1.3987553259E-02  1.3835559493E-02  3.1884374828E-01
  5.4500000000E+03  1.5673971409E+00  6.8100191658E+00  1.4023502710E-02  1.3870836867E-02  3.1908121450E-01
  5.4550000000E+03  1.5689105602E+00  6.8069662693E+00  1.4059511004E-02  1.3906170717E-02  3.1931852620E-01
  5.4600000000E+03  1.5704240523E+00  6.8039175364E+00  1.4095578182E-02  1.3941561064E-02  3.1955568376E-01
  5.4650000000E+03  1.5719376170E+00  6.8008729577E+00  1.4131704286E-02  1.3977007942E-02  3.1979268753E-01
  5.4700000000E+03  1.5734512544E+00  6.7978325238E+00  1.4167889356E-02  1.4012511385E-02  3.2002953790E-01
  5.4750000000E+03  1.5749649643E+00  6.7947962252E+00  1.4204133434E-02  1.4048071428E-02  3.2026623523E-01
  5.4800000000E+03  1.5764787467E+00  6.7917640525E+00  1.4240436560E-02  1.4083688106E-02  3.2050277989E-01
  5.4850000000E+03  1.5779926015E+00  6.7887359964E+00  1.4276798776E-02  1.4119361454E-02  3.2073917225E-01
  5.4900000000E+03  1.5795065287E+00  6.7857120476E+00  1.4313220122E-02  1.4155091505E-02  3.2097541267E-01
  5.4950000000E+03  1.5810205282E+00  6.7826921967E+00  1.4349700641E-02  1.4190878295E-02  3.2121150152E-01
  5.5000000000E+03  1.5825353425E+00  6.7796764345E+00  1.4386240372E-02  1.4226721918E-02  3.2144743916E-01
  5.5050000000E+03  1.5840502961E+00  6.7766885388E+00  1.4423001804E-02  1.4262781317E-02  3.2168322597E-01
  5.5100000000E+03  1.5855653226E+00  6.7737340459E+00  1.4459823197E-02  1.4298898329E-02  3.2191886230E-01
  5.5150000000E+03  1.5870804220E+00  6.7707835192E+00  1.4496704593E-02  1.4335072861E-02  3.2215434852E-01
  5.5200000000E+03  1.5885955942E+00  6.7678369497E+00  1.4533646035E-02  1.4371304946E-02  3.2238968498E-01
  5.5250000000E+03  1.5901108392E+00  6.7648943286E+00  1.4570647564E-02  1.4407594621E-02  3.2262487205E-01
  5.5300000000E+03  1.5916261568E+00  6.7619556470E+00  1.4607709223E-02  1.4443941921E-02  3.2285991010E-01
  5.5350000000E+03  1.5931415470E+00  6.7590208961E+00  1.4644831053E-02  1.4480346882E-02  3.2309479947E-01
  5.5400000000E+03  1.5946570098E+00  6.7560900670E+00  1.4682013097E-02  1.4516809538E-02  3.2332954053E-01
  5.5450000000E+03  1.5961725450E+00  6.7531631510E+00  1.4719255397E-02  1.4553329925E-02  3.2356413364E-01
  5.5500000000E+03  1.5976981043E+00  6.7502401394E+00  1.4756557994E-02  1.4589908909E-02  3.2379857915E-01
  5.5550000000E+03  1.5992271003E+00  6.7473210234E+00  1.4793920931E-02  1.4626545980E-02  3.2403287742E-01
  5.5600000000E+03  1.6007561819E+00  6.7444057944E+00  1.4831344249E-02  1.4663240897E-02  3.2426702880E-01
  5.5650000000E+03  1.6022853491E+00  6.7414944437E+00  1.4868827991E-02  1.4699993693E-02  3.2450103366E-01
  5.5700000000E+03  1.6038146018E+00  6.7385869625E+00  1.4906372199E-02  1.4736804405E-02  3.2473489234E-01
  5.5750000000E+03  1.6053439400E+00  6.7356833425E+00  1.4943976914E-02  1.4773673067E-02  3.2496860519E-01
  5.5800000000E+03  1.6068733635E+00  6.7327835748E+00  1.4981642179E-02  1.4810599715E-02  3.2520217258E-01
  5.5850000000E+03  1.6084028724E+00  6.7298876511E+00  1.5019368035E-02  1.4847584383E-02  3.2543559485E-01
  5.5900000000E+03  1.6099324664E+00  6.7269955627E+00  1.5057154524E-02  1.4884627108E-02  3.2566887235E-01
  5.5950000000E+03  1.6114621456E+00  6.7241445467E+00  1.5095001689E-02  1.4921728107E-02  3.2590200543E-01
  5.6000000000E+03  1.6130007473E+00  6.7213110603E+00  1.5132909571E-02  1.4958888062E-02  3.2613499445E-01
  5.6050000000E+03  1.6145488694E+00  6.7184812951E+00  1.5170878212E-02  1.4996107000E-02  3.2636783975E-01
  5.6100000000E+03  1.6160970949E+00  6.7156552428E+00  1.5208907654E-02  1.5033384147E-02  3.2660054168E-01
  5.6150000000E+03  1.6176454238E+00  6.7128328954E+00  1.5246997939E-02  1.5070719540E-02  3.2683310058E-01
  5.6200000000E+03  1.6191938560E+00  6.7100142445E+00  1.5285149109E-02  1.5108113213E-02  3.2706551681E-01
  5.6250000000E+03  1.6207423914E+00  6.7071992823E+00  1.5323361205E-02  1.5145565200E-02  3.2729779071E-01
  5.6300000000E+03  1.6222910300E+00  6.7043880004E+00  1.5361634270E-02  1.5183075539E-02  3.2752992268E-01
  5.6350000000E+03  1.6238397715E+00  6.7015803909E+00  1.5399968345E-02  1.5220644262E-02  3.2776191330E-01
  5.6400000000E+03  1.6253886160E+00  6.6987764457E+00  1.5438363472E-02  1.5258271405E-02  3.2799376297E-01
  5.6450000000E+03  1.6269375634E+00  6.6959761568E+00  1.5476819693E-02  1.5295957004E-02  3.2822547207E-01
  5.6500000000E+03  1.6284864944E+00  6.6931795162E+00  1.5515337050E-02  1.5333701081E-02  3.2845704096E-01
  5.6550000000E+03  1.6300347010E+00  6.6903865158E+00  1.5553915584E-02  1.5371503610E-02  3.2868847001E-01
  5.6600000000E+03  1.6315830093E+00  6.6875971479E+00  1.5592555338E-02  1.5409364698E-02  3.2891975959E-01
  5.6650000000E+03  1.6331314191E+00  6.6848114043E+00  1.5631256353E-02  1.5447284380E-02  3.2915091006E-01
  5.6700000000E+03  1.6346799305E+00  6.6820292773E+00  1.5670018671E-02  1.5485262691E-02  3.2938192178E-01
  5.6750000000E+03  1.6362285432E+00  6.6792507589E+00  1.5708842333E-02  1.5523299666E-02  3.2961279512E-01
  5.6800000000E+03  1.6377772572E+00  6.6764758413E+00  1.5747727382E-02  1.5561395338E-02  3.2984353044E-01
  5.6850000000E+03  1.6393260725E+00  6.6737400871E+00  1.5786673859E-02  1.5599549939E-02  3.3007412811E-01
  5.6900000000E+03  1.6408749890E+00  6.6710211903E+00  1.5825681806E-02  1.5637763382E-02  3.3030458848E-01
  5.6950000000E+03  1.6424240065E+00  6.6683057878E+00  1.5864751264E-02  1.5676035630E-02  3.3053491191E-01
  5.7000000000E+03  1.6439731250E+00  6.6655938722E+00  1.5903882276E-02  1.5714366718E-02  3.3076509877E-01
  5.7050000000E+03  1.6455223431E+00  6.6628854359E+00  1.5943074882E-02  1.5752756681E-02  3.3099514942E-01
  5.7100000000E+03  1.6470716613E+00  6.6601804713E+00  1.5982329126E-02  1.5791205552E-02  3.3122506420E-01
  5.7150000000E+03  1.6486210803E+00  6.6574789711E+00  1.6021645047E-02  1.5829713368E-02  3.3145484348E-01
  5.7200000000E+03  1.6501706000E+00  6.6547809276E+00  1.6061022689E-02  1.5868280162E-02  3.3168448761E-01
  5.7250000000E+03  1.6517202202E+00  6.6520863336E+00  1.6100462092E-02  1.5906905969E-02  3.3191399696E-01
  5.7300000000E+03  1.6532699410E+00  6.6493951815E+00  1.6139963299E-02  1.5945590823E-02  3.3214337186E-01
  5.7350000000E+03  1.6548197621E+00  6.6467074640E+00  1.6179526350E-02  1.5984334760E-02  3.3237261269E-01
  5.7400000000E+03  1.6563696836E+00  6.6440231737E+00  1.6219151289E-02  1.6023137813E-02  3.3260171978E-01
  5.7450000000E+03  1.6579197054E+00  6.6413423033E+00  1.6258838155E-02  1.6062000017E-02  3.3283069350E-01
  5.7500000000E+03  1.6594698273E+00  6.6386648454E+00  1.6298586991E-02  1.6100921407E-02  3.3305953419E-01
  5.7550000000E+03  1.6610206095E+00  6.6359907927E+00  1.6338397839E-02  1.6139902070E-02  3.3328824221E-01
  5.7600000000E+03  1.6625756022E+00  6.6333201380E+00  1.6378270739E-02  1.6178942377E-02  3.3351681790E-01
  5.7650000000E+03  1.6641306995E+00  6.6306528739E+00  1.6418205734E-02  1.6218041976E-02  3.3374526161E-01
  5.7700000000E+03  1.6656859013E+00  6.6279889933E+00  1.6458202866E-02  1.6257200901E-02  3.3397357369E-01
  5.7750000000E+03  1.6672412075E+00  6.6253488716E+00  1.6498262175E-02  1.6296419310E-02  3.3420175449E-01
  5.7800000000E+03  1.6687966181E+00  6.6227385641E+00  1.6538383703E-02  1.6335697276E-02  3.3442980436E-01
  5.7850000000E+03  1.6703521330E+00  6.6201315408E+00  1.6578567492E-02  1.6375034675E-02  3.3465772364E-01
  5.7900000000E+03  1.6719077520E+00  6.6175277947E+00  1.6618813583E-02  1.6414431540E-02  3.3488551267E-01
  5.7950000000E+03  1.6734634751E+00  6.6149273189E+00  1.6659122018E-02  1.6453887905E-02  3.3511317181E-01
  5.8000000000E+03  1.6750193023E+00  6.6123301064E+00  1.6699492839E-02  1.6493403806E-02  3.3534070139E-01
  5.8050000000E+03  1.6765752334E+00  6.6097361504E+00  1.6739926086E-02  1.6532979276E-02  3.3556810176E-01
  5.8100000000E+03  1.6781313088E+00  6.6071454439E+00  1.6780421801E-02  1.6572614353E-02  3.3579537326E-01
  5.8150000000E+03  1.6796875332E+00  6.6045579801E+00  1.6820980027E-02  1.6612309072E-02  3.3602251622E-01
  5.8200000000E+03  1.6812438613E+00  6.6019737521E+00  1.6861600803E-02  1.6652063463E-02  3.3624953100E-01
  5.8250000000E+03  1.6828002932E+00  6.5993927532E+00  1.6902284173E-02  1.6691877560E-02  3.3647641794E-01
  5.8300000000E+03  1.6843568287E+00  6.5968149765E+00  1.6943030176E-02  1.6731751398E-02  3.3670317736E-01
  5.8350000000E+03  1.6859134677E+00  6.5942404153E+00  1.6983838855E-02  1.6771685009E-02  3.3692980961E-01
  5.8400000000E+03  1.6874702101E+00  6.5916690627E+00  1.7024710252E-02  1.6811678430E-02  3.3715631503E-01
  5.8450000000E+03  1.6890270559E+00  6.5891009121E+00  1.7065644406E-02  1.6851731692E-02  3.3738269395E-01
  5.8500000000E+03  1.6905840050E+00  6.5865359567E+00  1.7106641361E-02  1.6891844831E-02  3.3760894671E-01
  5.8550000000E+03  1.6921410573E+00  6.5839741898E+00  1.7147701157E-02  1.6932017881E-02  3.3783507365E-01
  5.8600000000E+03  1.6936982127E+00  6.5814156047E+00  1.7188823835E-02  1.6972250875E-02  3.3806107510E-01
  5.8650000000E+03  1.6952549237E+00  6.5788601949E+00  1.7230009438E-02  1.7012543792E-02  3.3828695140E-01
  5.8700000000E+03  1.6968115284E+00  6.5763460206E+00  1.7271258006E-02  1.7052896956E-02  3.3851270287E-01
  5.8750000000E+03  1.6983682352E+00  6.5738417739E+00  1.7312569580E-02  1.7093310215E-02  3.3873832986E-01
  5.8800000000E+03  1.6999250440E+00  6.5713406099E+00  1.7353944203E-02  1.7133783556E-02  3.3896383269E-01
  5.8850000000E+03  1.7014819548E+00  6.5688425223E+00  1.7395381915E-02  1.7174317014E-02  3.3918921169E-01
  5.8900000000E+03  1.7030389675E+00  6.5663475047E+00  1.7436882758E-02  1.7214910623E-02  3.3941446720E-01
  5.8950000000E+03  1.7045960820E+00  6.5638555506E+00  1.7478446774E-02  1.7255564415E-02  3.3963959955E-01
  5.9000000000E+03  1.7061532983E+00  6.5613666537E+00  1.7520074002E-02  1.7296278426E-02  3.3986460906E-01
  5.9050000000E+03  1.7077106162E+00  6.5588808078E+00  1.7561764486E-02  1.7337052688E-02  3.4008949607E-01
  5.9100000000E+03  1.7092680357E+00  6.5563980064E+00  1.7603518265E-02  1.7377887236E-02  3.4031426089E-01
  5.9150000000E+03  1.7108255566E+00  6.5539182433E+00  1.7645335382E-02  1.7418782104E-02  3.4053890387E-01
  5.9200000000E+03  1.7123846401E+00  6.5514415121E+00  1.7687215877E-02  1.7459737476E-02  3.4076342533E-01
  5.9250000000E+03  1.7139440333E+00  6.5489678067E+00  1.7729159792E-02  1.7500753259E-02  3.4098782558E-01
  5.9300000000E+03  1.7155035294E+00  6.5464971208E+00  1.7771167169E-02  1.7541829462E-02  3.4121210496E-01
  5.9350000000E+03  1.7170631283E+00  6.5440294481E+00  1.7813238047E-02  1.7582966122E-02  3.4143626380E-01
  5.9400000000E+03  1.7186228299E+00  6.5415647825E+00  1.7855372470E-02  1.7624163270E-02  3.4166030241E-01
  5.9450000000E+03  1.7201826342E+00  6.5391031177E+00  1.7897570477E-02  1.7665420941E-02  3.4188422112E-01
  5.9500000000E+03  1.7217425410E+00  6.5366444476E+00  1.7939832110E-02  1.7706739169E-02  3.4210802026E-01
  5.9550000000E+03  1.7233025503E+00  6.5341887660E+00  1.7982157410E-02  1.7748117986E-02  3.4233170014E-01
  5.9600000000E+03  1.7248626620E+00  6.5317360669E+00  1.8024546419E-02  1.7789557427E-02  3.4255526108E-01
  5.9650000000E+03  1.7264228761E+00  6.5293276945E+00  1.8066999177E-02  1.7831057833E-02  3.4277870342E-01
  5.9700000000E+03  1.7279831924E+00  6.5269238740E+00  1.8109515726E-02  1.7872618945E-02  3.4300202746E-01
  5.9750000000E+03  1.7295677627E+00  6.5245229497E+00  1.8152096107E-02  1.7914243375E-02  3.4322523353E-01
  5.9800000000E+03  1.7311542777E+00  6.5221249157E+00  1.8194740362E-02  1.7955928778E-02  3.4344832194E-01
  5.9850000000E+03  1.7327409201E+00  6.5197297663E+00  1.8237448530E-02  1.7997674994E-02  3.4367129302E-01
  5.9900000000E+03  1.7343276900E+00  6.5173374955E+00  1.8280220654E-02  1.8039482056E-02  3.4389414708E-01
  5.9950000000E+03  1.7359145872E+00  6.5149480974E+00  1.8323056775E-02  1.8081349998E-02  3.4411688444E-01
  6.0000000000E+03  1.7375016116E+00  6.5125615662E+00  1.8365956933E-02  1.8123278853E-02  3.4433950541E-01
  6.0050000000E+03  1.7390887631E+00  6.5101778961E+00  1.8409332202E-02  1.8165668877E-02  3.4456201032E-01
  6.0100000000E+03  1.7406760417E+00  6.5077970812E+00  1.8452773203E-02  1.8208121415E-02  3.4478439947E-01
  6.0150000000E+03  1.7422634471E+00  6.5054191159E+00  1.8496279979E-02  1.8250636501E-02  3.4500667319E-01
  6.0200000000E+03  1.7438509795E+00  6.5030439942E+00  1.8539852574E-02  1.8293214172E-02  3.4522883178E-01
  6.0250000000E+03  1.7454386385E+00  6.5006717105E+00  1.8583491032E-02  1.8335854463E-02  3.4545087556E-01
  6.0300000000E+03  1.7470294772E+00  6.4983022590E+00  1.8627195397E-02  1.8378557748E-02  3.4567280485E-01
  6.0350000000E+03  1.7486208620E+00  6.4959356340E+00  1.8670965711E-02  1.8421323772E-02  3.4589461994E-01
  6.0400000000E+03  1.7502123767E+00  6.4935718298E+00  1.8714802020E-02  1.8464152526E-02  3.4611632117E-01
  6.0450000000E+03  1.7518040212E+00  6.4912108406E+00  1.8758704366E-02  1.8507044045E-02  3.4633790883E-01
  6.0500000000E+03  1.7533957954E+00  6.4888526609E+00  1.8802672793E-02  1.8549998364E-02  3.4655938324E-01
  6.0550000000E+03  1.7549876992E+00  6.4864972849E+00  1.8846707345E-02  1.8593015520E-02  3.4678074471E-01
  6.0600000000E+03  1.7565797325E+00  6.4841764669E+00  1.8890808065E-02  1.8636095809E-02  3.4700199354E-01
  6.0650000000E+03  1.7581718952E+00  6.4818677930E+00  1.8934974997E-02  1.8679239085E-02  3.4722313006E-01
  6.0700000000E+03  1.7597641872E+00  6.4795618426E+00  1.8979208185E-02  1.8722445307E-02  3.4744415455E-01
  6.0750000000E+03  1.7613566084E+00  6.4772586102E+00  1.9023507672E-02  1.8765714510E-02  3.4766506734E-01
  6.0800000000E+03  1.7629491587E+00  6.4749580905E+00  1.9067873502E-02  1.8809046730E-02  3.4788586873E-01
  6.0850000000E+03  1.7645602310E+00  6.4726602778E+00  1.9112305718E-02  1.8852444100E-02  3.4810655902E-01
  6.0900000000E+03  1.7661782567E+00  6.4703651670E+00  1.9156804364E-02  1.8895905351E-02  3.4832713853E-01
  6.0950000000E+03  1.7677964363E+00  6.4680727525E+00  1.9201369483E-02  1.8939429743E-02  3.4854760755E-01
  6.1000000000E+03  1.7694147699E+00  6.4657830290E+00  1.9246001120E-02  1.8983017312E-02  3.4876796640E-01
  6.1050000000E+03  1.7710332571E+00  6.4634959911E+00  1.9290699317E-02  1.9026668093E-02  3.4898821537E-01
  6.1100000000E+03  1.7726518979E+00  6.4612116335E+00  1.9335464119E-02  1.9070382121E-02  3.4920835478E-01
  6.1150000000E+03  1.7742706923E+00  6.4589299508E+00  1.9380295568E-02  1.9114159433E-02  3.4942838492E-01
  6.1200000000E+03  1.7758896401E+00  6.4566509378E+00  1.9425193708E-02  1.9158000062E-02  3.4964830609E-01
  6.1250000000E+03  1.7775087411E+00  6.4543745892E+00  1.9470158584E-02  1.9201904045E-02  3.4986811860E-01
  6.1300000000E+03  1.7791279953E+00  6.4521008995E+00  1.9515190237E-02  1.9245871416E-02  3.5008782276E-01
  6.1350000000E+03  1.7807474026E+00  6.4498298637E+00  1.9560288712E-02  1.9289902212E-02  3.5030741885E-01
  6.1400000000E+03  1.7823667850E+00  6.4475614764E+00  1.9605454052E-02  1.9333996445E-02  3.5052690719E-01
  6.1450000000E+03  1.7839861244E+00  6.4452957323E+00  1.9650686301E-02  1.9378154150E-02  3.5074628807E-01
  6.1500000000E+03  1.7856056162E+00  6.4430326264E+00  1.9695985502E-02  1.9422375383E-02  3.5096556179E-01
  6.1550000000E+03  1.7872252602E+00  6.4407828848E+00  1.9741351699E-02  1.9466660279E-02  3.5118472866E-01
  6.1600000000E+03  1.7888450563E+00  6.4385644062E+00  1.9786784935E-02  1.9511009038E-02  3.5140378896E-01
  6.1650000000E+03  1.7904650044E+00  6.4363484908E+00  1.9832285254E-02  1.9555421435E-02  3.5162274300E-01
  6.1700000000E+03  1.7920851045E+00  6.4341351335E+00  1.9877852698E-02  1.9599897505E-02  3.5184159107E-01
  6.1750000000E+03  1.7937053564E+00  6.4319243294E+00  1.9923487312E-02  1.9644437282E-02  3.5206033348E-01
  6.1800000000E+03  1.7953257600E+00  6.4297160734E+00  1.9969189138E-02  1.9689040803E-02  3.5227897052E-01
  6.1850000000E+03  1.7969463152E+00  6.4275103605E+00  2.0014958221E-02  1.9733708101E-02  3.5249750248E-01
  6.1900000000E+03  1.7985670219E+00  6.4253071858E+00  2.0060794604E-02  1.9778439212E-02  3.5271592966E-01
  6.1950000000E+03  1.8001878385E+00  6.4231065443E+00  2.0106698329E-02  1.9823234166E-02  3.5293425235E-01
  6.2000000000E+03  1.8018084966E+00  6.4209084309E+00  2.0152669441E-02  1.9868092965E-02  3.5315247086E-01
  6.2050000000E+03  1.8034293056E+00  6.4187128409E+00  2.0198707983E-02  1.9913015681E-02  3.5337058546E-01
  6.2100000000E+03  1.8050502653E+00  6.4165197692E+00  2.0244813997E-02  1.9958002350E-02  3.5358859647E-01
  6.2150000000E+03  1.8066713756E+00  6.4143292110E+00  2.0290987529E-02  2.0003053006E-02  3.5380650416E-01
  6.2200000000E+03  1.8082926363E+00  6.4121411613E+00  2.0337228620E-02  2.0048167684E-02  3.5402430884E-01
  6.2250000000E+03  1.8099140475E+00  6.4099556153E+00  2.0383537314E-02  2.0093346419E-02  3.5424201079E-01
  6.2300000000E+03  1.8115356089E+00  6.4077725681E+00  2.0429913655E-02  2.0138589245E-02  3.5445961031E-01
  6.2350000000E+03  1.8131573205E+00  6.4055920148E+00  2.0476357686E-02  2.0183896198E-02  3.5467710769E-01
  6.2400000000E+03  1.8147791821E+00  6.4034139505E+00  2.0522869449E-02  2.0229267312E-02  3.5489450321E-01
  6.2450000000E+03  1.8164011937E+00  6.4012383706E+00  2.0569448990E-02  2.0274702622E-02  3.5511179717E-01
  6.2500000000E+03  1.8180233552E+00  6.3990652701E+00  2.0616096350E-02  2.0320202163E-02  3.5532898986E-01
  6.2550000000E+03  1.8196452394E+00  6.3969119526E+00  2.0662811573E-02  2.0365766091E-02  3.5554608156E-01
  6.2600000000E+03  1.8212670467E+00  6.3947814403E+00  2.0709594702E-02  2.0411394500E-02  3.5576307257E-01
  6.2650000000E+03  1.8228890029E+00  6.3926533377E+00  2.0756445782E-02  2.0457087246E-02  3.5597996318E-01
  6.2700000000E+03  1.8245111079E+00  6.3905276401E+00  2.0803364854E-02  2.0502844364E-02  3.5619675366E-01
  6.2750000000E+03  1.8261333616E+00  6.3884043430E+00  2.0850351962E-02  2.0548665889E-02  3.5641344432E-01
  6.2800000000E+03  1.8277557638E+00  6.3862834418E+00  2.0897407149E-02  2.0594551855E-02  3.5663003543E-01
  6.2850000000E+03  1.8293783146E+00  6.3841649318E+00  2.0944530459E-02  2.0640502297E-02  3.5684652728E-01
  6.2900000000E+03  1.8310010136E+00  6.3820488084E+00  2.0991721935E-02  2.0686517250E-02  3.5706292016E-01
  6.2950000000E+03  1.8326238610E+00  6.3799350671E+00  2.1038981620E-02  2.0732596748E-02  3.5727921436E-01
  6.3000000000E+03  1.8342468565E+00  6.3778237032E+00  2.1086309558E-02  2.0778740825E-02  3.5749541015E-01
  6.3050000000E+03  1.8358700001E+00  6.3757147123E+00  2.1133705791E-02  2.0824949517E-02  3.5771150783E-01
  6.3100000000E+03  1.8374932044E+00  6.3736080897E+00  2.1181170362E-02  2.0871222845E-02  3.5792750768E-01
  6.3150000000E+03  1.8391156290E+00  6.3715038310E+00  2.1228703316E-02  2.0917560737E-02  3.5814340998E-01
  6.3200000000E+03  1.8407382004E+00  6.3694019316E+00  2.1276304694E-02  2.0963963345E-02  3.5835921501E-01
  6.3250000000E+03  1.8423609184E+00  6.3673023870E+00  2.1323974541E-02  2.1010430703E-02  3.5857492306E-01
  6.3300000000E+03  1.8439837830E+00  6.3652051927E+00  2.1371712899E-02  2.1056962847E-02  3.5879053441E-01
  6.3350000000E+03  1.8456067940E+00  6.3631103443E+00  2.1419519812E-02  2.1103559811E-02  3.5900604935E-01
  6.3400000000E+03  1.8472299514E+00  6.3610178372E+00  2.1467395322E-02  2.1150221628E-02  3.5922146815E-01
  6.3450000000E+03  1.8488532550E+00  6.3589276670E+00  2.1515339473E-02  2.1196948334E-02  3.5943679109E-01
  6.3500000000E+03  1.8504767048E+00  6.3568398293E+00  2.1563352308E-02  2.1243739962E-02  3.5965201846E-01
