#[MATERIAL DEFINITION FOR MC-GPU: interaction mean free path and sampling data from PENELOPE 2018]
#[MATERIAL NAME]
# spine_thoratic                                                
#[NOMINAL DENSITY (g/cm^3)]
#   1.08400000
#[NUMBER OF DATA VALUES]
#  23002
#[MEAN FREE PATHS (cm) (ie, average distance between interactions)]
#[Energy (eV)     | Rayleigh        | Compton         | Photoelectric   | TOTAL (+pair prod) (cm) | Rayleigh: max cumul prob F^2]
  5.0000000000E+03  1.7747622919E+00  7.5617415752E+00  1.8610074732E-02  1.8372209070E-02  3.1961391133E-01
  5.0050000000E+03  1.7766869493E+00  7.5577917540E+00  1.8663650145E-02  1.8424605501E-02  3.1986831544E-01
  5.0100000000E+03  1.7786117690E+00  7.5538479367E+00  1.8717325191E-02  1.8477096849E-02  3.2012249645E-01
  5.0150000000E+03  1.7805376355E+00  7.5499101083E+00  1.8771099954E-02  1.8529683279E-02  3.2037645492E-01
  5.0200000000E+03  1.7824641937E+00  7.5459782538E+00  1.8824974516E-02  1.8582364821E-02  3.2063019139E-01
  5.0250000000E+03  1.7843909155E+00  7.5420523581E+00  1.8878948960E-02  1.8635141487E-02  3.2088370641E-01
  5.0300000000E+03  1.7863178006E+00  7.5381324062E+00  1.8933023370E-02  1.8688013346E-02  3.2113700052E-01
  5.0350000000E+03  1.7882448489E+00  7.5342183833E+00  1.8987197828E-02  1.8740980465E-02  3.2139007425E-01
  5.0400000000E+03  1.7901720603E+00  7.5303102746E+00  1.9041472416E-02  1.8794042913E-02  3.2164292816E-01
  5.0450000000E+03  1.7920994346E+00  7.5264080652E+00  1.9095847219E-02  1.8847200757E-02  3.2189556277E-01
  5.0500000000E+03  1.7940269717E+00  7.5225117404E+00  1.9150322318E-02  1.8900454067E-02  3.2214797862E-01
  5.0550000000E+03  1.7959546715E+00  7.5186212856E+00  1.9204897797E-02  1.8953802911E-02  3.2240017625E-01
  5.0600000000E+03  1.7978894040E+00  7.5147366860E+00  1.9259573739E-02  1.9007248124E-02  3.2265215620E-01
  5.0650000000E+03  1.7998370735E+00  7.5108579272E+00  1.9314350225E-02  1.9060790444E-02  3.2290391898E-01
  5.0700000000E+03  1.8017849281E+00  7.5069849945E+00  1.9369227340E-02  1.9114428519E-02  3.2315546514E-01
  5.0750000000E+03  1.8037329676E+00  7.5031178735E+00  1.9424205165E-02  1.9168162417E-02  3.2340679520E-01
  5.0800000000E+03  1.8056811918E+00  7.4992565497E+00  1.9479283783E-02  1.9221992207E-02  3.2365790968E-01
  5.0850000000E+03  1.8076296006E+00  7.4954624488E+00  1.9534463278E-02  1.9275918362E-02  3.2390880911E-01
  5.0900000000E+03  1.8095781939E+00  7.4916799513E+00  1.9589743732E-02  1.9329940589E-02  3.2415949402E-01
  5.0950000000E+03  1.8115269714E+00  7.4879030735E+00  1.9645125227E-02  1.9384058914E-02  3.2440996492E-01
  5.1000000000E+03  1.8134759330E+00  7.4841318017E+00  1.9700607847E-02  1.9438273408E-02  3.2466022234E-01
  5.1050000000E+03  1.8154250785E+00  7.4803661220E+00  1.9756191674E-02  1.9492584137E-02  3.2491026679E-01
  5.1100000000E+03  1.8173788997E+00  7.4766060206E+00  1.9811876790E-02  1.9546991688E-02  3.2516009879E-01
  5.1150000000E+03  1.8193329551E+00  7.4728514839E+00  1.9867663278E-02  1.9601495619E-02  3.2540971885E-01
  5.1200000000E+03  1.8212871993E+00  7.4691024982E+00  1.9923551221E-02  1.9656095992E-02  3.2565912749E-01
  5.1250000000E+03  1.8232416321E+00  7.4653590499E+00  1.9979540701E-02  1.9710792876E-02  3.2590832522E-01
  5.1300000000E+03  1.8251962532E+00  7.4616211253E+00  2.0035631801E-02  1.9765586336E-02  3.2615731256E-01
  5.1350000000E+03  1.8271510626E+00  7.4578887111E+00  2.0091824603E-02  1.9820476442E-02  3.2640609000E-01
  5.1400000000E+03  1.8291060601E+00  7.4541617936E+00  2.0148119190E-02  1.9875463259E-02  3.2665465800E-01
  5.1450000000E+03  1.8310612455E+00  7.4504403596E+00  2.0204515645E-02  1.9930546856E-02  3.2690301686E-01
  5.1500000000E+03  1.8330166186E+00  7.4467243955E+00  2.0261014049E-02  1.9985727300E-02  3.2715116710E-01
  5.1550000000E+03  1.8349736929E+00  7.4430138881E+00  2.0317614486E-02  2.0041004839E-02  3.2739910927E-01
  5.1600000000E+03  1.8369322361E+00  7.4393088240E+00  2.0374317038E-02  2.0096379513E-02  3.2764684392E-01
  5.1650000000E+03  1.8388909698E+00  7.4356452265E+00  2.0431121787E-02  2.0151851503E-02  3.2789437161E-01
  5.1700000000E+03  1.8408498939E+00  7.4320159724E+00  2.0488028816E-02  2.0207420828E-02  3.2814169287E-01
  5.1750000000E+03  1.8428090081E+00  7.4283919954E+00  2.0545038206E-02  2.0263087344E-02  3.2838880825E-01
  5.1800000000E+03  1.8447683123E+00  7.4247732827E+00  2.0602150041E-02  2.0318851117E-02  3.2863571828E-01
  5.1850000000E+03  1.8467278064E+00  7.4211598215E+00  2.0659364403E-02  2.0374712215E-02  3.2888242352E-01
  5.1900000000E+03  1.8486874901E+00  7.4175515993E+00  2.0716681374E-02  2.0430670705E-02  3.2912892450E-01
  5.1950000000E+03  1.8506473634E+00  7.4139486033E+00  2.0774101036E-02  2.0486726652E-02  3.2937522175E-01
  5.2000000000E+03  1.8526074306E+00  7.4103508210E+00  2.0831623472E-02  2.0542880125E-02  3.2962131581E-01
  5.2050000000E+03  1.8545682626E+00  7.4067582398E+00  2.0889248764E-02  2.0599131262E-02  3.2986720722E-01
  5.2100000000E+03  1.8565292843E+00  7.4031708473E+00  2.0946976994E-02  2.0655480057E-02  3.3011289650E-01
  5.2150000000E+03  1.8584904956E+00  7.3995886309E+00  2.1004808244E-02  2.0711926578E-02  3.3035838418E-01
  5.2200000000E+03  1.8604518962E+00  7.3960115783E+00  2.1062742598E-02  2.0768470892E-02  3.3060367080E-01
  5.2250000000E+03  1.8624134860E+00  7.3924396770E+00  2.1120780136E-02  2.0825113065E-02  3.3084875687E-01
  5.2300000000E+03  1.8643752648E+00  7.3888729148E+00  2.1178920941E-02  2.0881853163E-02  3.3109364292E-01
  5.2350000000E+03  1.8663372325E+00  7.3853112792E+00  2.1237165096E-02  2.0938691254E-02  3.3133832949E-01
  5.2400000000E+03  1.8682993889E+00  7.3817547582E+00  2.1295512682E-02  2.0995627403E-02  3.3158281707E-01
  5.2450000000E+03  1.8702617339E+00  7.3782033394E+00  2.1354008200E-02  2.1052704851E-02  3.3182710621E-01
  5.2500000000E+03  1.8722268376E+00  7.3747155565E+00  2.1412794938E-02  2.1110063647E-02  3.3207119741E-01
  5.2550000000E+03  1.8741962234E+00  7.3712369467E+00  2.1471686524E-02  2.1167522379E-02  3.3231509119E-01
  5.2600000000E+03  1.8761658049E+00  7.3677632836E+00  2.1530683044E-02  2.1225080560E-02  3.3255878807E-01
  5.2650000000E+03  1.8781355819E+00  7.3642945556E+00  2.1589784583E-02  2.1282738262E-02  3.3280228856E-01
  5.2700000000E+03  1.8801055543E+00  7.3608307509E+00  2.1648991224E-02  2.1340495551E-02  3.3304559317E-01
  5.2750000000E+03  1.8820757219E+00  7.3573718579E+00  2.1708303052E-02  2.1398352496E-02  3.3328870241E-01
  5.2800000000E+03  1.8840460846E+00  7.3539178649E+00  2.1767720153E-02  2.1456309166E-02  3.3353161679E-01
  5.2850000000E+03  1.8860166421E+00  7.3504687604E+00  2.1827242611E-02  2.1514365630E-02  3.3377433682E-01
  5.2900000000E+03  1.8879873943E+00  7.3470245329E+00  2.1886870510E-02  2.1572521955E-02  3.3401686300E-01
  5.2950000000E+03  1.8899583411E+00  7.3435851708E+00  2.1946603935E-02  2.1630778209E-02  3.3425919584E-01
  5.3000000000E+03  1.8919391621E+00  7.3401506627E+00  2.2006442971E-02  2.1689135734E-02  3.3450133583E-01
  5.3050000000E+03  1.8939248731E+00  7.3367209972E+00  2.2066387703E-02  2.1747593953E-02  3.3474328349E-01
  5.3100000000E+03  1.8959107946E+00  7.3332961630E+00  2.2126438214E-02  2.1806152320E-02  3.3498503930E-01
  5.3150000000E+03  1.8978969265E+00  7.3298761485E+00  2.2186594590E-02  2.1864810905E-02  3.3522660377E-01
  5.3200000000E+03  1.8998832685E+00  7.3264609427E+00  2.2246856915E-02  2.1923569775E-02  3.3546797739E-01
  5.3250000000E+03  1.9018698205E+00  7.3230505340E+00  2.2307225273E-02  2.1982428998E-02  3.3570916066E-01
  5.3300000000E+03  1.9038565823E+00  7.3196475995E+00  2.2367699749E-02  2.2041388667E-02  3.3595015407E-01
  5.3350000000E+03  1.9058435538E+00  7.3163072984E+00  2.2428280428E-02  2.2100449353E-02  3.3619095811E-01
  5.3400000000E+03  1.9078307347E+00  7.3129716487E+00  2.2488967393E-02  2.2159610602E-02  3.3643157328E-01
  5.3450000000E+03  1.9098181250E+00  7.3096406393E+00  2.2549760730E-02  2.2218872482E-02  3.3667200005E-01
  5.3500000000E+03  1.9118093521E+00  7.3063142597E+00  2.2610660523E-02  2.2278235553E-02  3.3691223893E-01
  5.3550000000E+03  1.9138013252E+00  7.3029924990E+00  2.2671666857E-02  2.2337699467E-02  3.3715229038E-01
  5.3600000000E+03  1.9157935118E+00  7.2996753465E+00  2.2732779815E-02  2.2397264220E-02  3.3739215491E-01
  5.3650000000E+03  1.9177859118E+00  7.2963627915E+00  2.2793999482E-02  2.2456929878E-02  3.3763183299E-01
  5.3700000000E+03  1.9197785250E+00  7.2930548234E+00  2.2855325942E-02  2.2516696511E-02  3.3787132510E-01
  5.3750000000E+03  1.9217713512E+00  7.2897514315E+00  2.2916759280E-02  2.2576564185E-02  3.3811063173E-01
  5.3800000000E+03  1.9237643903E+00  7.2864526053E+00  2.2978299581E-02  2.2636532968E-02  3.3834975334E-01
  5.3850000000E+03  1.9257576420E+00  7.2831583343E+00  2.3039946928E-02  2.2696602927E-02  3.3858869043E-01
  5.3900000000E+03  1.9277511062E+00  7.2798686079E+00  2.3101701406E-02  2.2756774131E-02  3.3882744346E-01
  5.3950000000E+03  1.9297447827E+00  7.2765834156E+00  2.3163563098E-02  2.2817046645E-02  3.3906601291E-01
  5.4000000000E+03  1.9317387626E+00  7.2733027470E+00  2.3225532091E-02  2.2877420551E-02  3.3930439925E-01
  5.4050000000E+03  1.9337329567E+00  7.2700265918E+00  2.3287608467E-02  2.2937895904E-02  3.3954260296E-01
  5.4100000000E+03  1.9357273626E+00  7.2667549394E+00  2.3349792310E-02  2.2998472769E-02  3.3978062451E-01
  5.4150000000E+03  1.9377219803E+00  7.2634877797E+00  2.3412083706E-02  2.3059151216E-02  3.4001846435E-01
  5.4200000000E+03  1.9397168096E+00  7.2602767532E+00  2.3474482738E-02  2.3119931833E-02  3.4025612297E-01
  5.4250000000E+03  1.9417118502E+00  7.2570768822E+00  2.3536989491E-02  2.3180814240E-02  3.4049360082E-01
  5.4300000000E+03  1.9437071020E+00  7.2538813673E+00  2.3599604049E-02  2.3241798435E-02  3.4073089838E-01
  5.4350000000E+03  1.9457025649E+00  7.2506901987E+00  2.3662326495E-02  2.3302884484E-02  3.4096801610E-01
  5.4400000000E+03  1.9476982386E+00  7.2475033665E+00  2.3725156915E-02  2.3364072456E-02  3.4120495446E-01
  5.4450000000E+03  1.9496941230E+00  7.2443208607E+00  2.3788095391E-02  2.3425362417E-02  3.4144171390E-01
  5.4500000000E+03  1.9517403856E+00  7.2411426716E+00  2.3851142009E-02  2.3486761699E-02  3.4167829488E-01
  5.4550000000E+03  1.9537872194E+00  7.2379687893E+00  2.3914296853E-02  2.3548263201E-02  3.4191469788E-01
  5.4600000000E+03  1.9558343215E+00  7.2347992041E+00  2.3977560006E-02  2.3609866948E-02  3.4215092334E-01
  5.4650000000E+03  1.9578816918E+00  7.2316339062E+00  2.4040931552E-02  2.3671573006E-02  3.4238697172E-01
  5.4700000000E+03  1.9599293301E+00  7.2284728859E+00  2.4104411576E-02  2.3733381443E-02  3.4262284347E-01
  5.4750000000E+03  1.9619772361E+00  7.2253161335E+00  2.4168000162E-02  2.3795292324E-02  3.4285853905E-01
  5.4800000000E+03  1.9640254096E+00  7.2221636393E+00  2.4231697394E-02  2.3857305717E-02  3.4309405890E-01
  5.4850000000E+03  1.9660738504E+00  7.2190153939E+00  2.4295503355E-02  2.3919421689E-02  3.4332940349E-01
  5.4900000000E+03  1.9681225583E+00  7.2158713874E+00  2.4359418130E-02  2.3981640306E-02  3.4356457326E-01
  5.4950000000E+03  1.9701715331E+00  7.2127316105E+00  2.4423441803E-02  2.4043961635E-02  3.4379956865E-01
  5.5000000000E+03  1.9722225788E+00  7.2095960535E+00  2.4487574457E-02  2.4106386012E-02  3.4403439011E-01
  5.5050000000E+03  1.9742740542E+00  7.2064899016E+00  2.4552116758E-02  2.4169204822E-02  3.4426903809E-01
  5.5100000000E+03  1.9763257983E+00  7.2034190197E+00  2.4616769498E-02  2.4232128116E-02  3.4450351304E-01
  5.5150000000E+03  1.9783778107E+00  7.2003522300E+00  2.4681532764E-02  2.4295155614E-02  3.4473781539E-01
  5.5200000000E+03  1.9804300913E+00  7.1972895234E+00  2.4746406641E-02  2.4358287384E-02  3.4497194559E-01
  5.5250000000E+03  1.9824826398E+00  7.1942308906E+00  2.4811391216E-02  2.4421523495E-02  3.4520590407E-01
  5.5300000000E+03  1.9845354560E+00  7.1911763227E+00  2.4876486576E-02  2.4484864015E-02  3.4543969128E-01
  5.5350000000E+03  1.9865885398E+00  7.1881258104E+00  2.4941692805E-02  2.4548309012E-02  3.4567330766E-01
  5.5400000000E+03  1.9886418909E+00  7.1850793449E+00  2.5007009991E-02  2.4611858555E-02  3.4590675364E-01
  5.5450000000E+03  1.9906955091E+00  7.1820369171E+00  2.5072438220E-02  2.4675512711E-02  3.4614002966E-01
  5.5500000000E+03  1.9927551599E+00  7.1789985179E+00  2.5137977577E-02  2.4739272437E-02  3.4637313615E-01
  5.5550000000E+03  1.9948170278E+00  7.1759641385E+00  2.5203628149E-02  2.4803137220E-02  3.4660607355E-01
  5.5600000000E+03  1.9968791712E+00  7.1729337699E+00  2.5269390022E-02  2.4867106830E-02  3.4683884228E-01
  5.5650000000E+03  1.9989415898E+00  7.1699074033E+00  2.5335263281E-02  2.4931181334E-02  3.4707144278E-01
  5.5700000000E+03  2.0010042835E+00  7.1668850296E+00  2.5401248013E-02  2.4995360800E-02  3.4730387549E-01
  5.5750000000E+03  2.0030672520E+00  7.1638666402E+00  2.5467344304E-02  2.5059645296E-02  3.4753614081E-01
  5.5800000000E+03  2.0051304951E+00  7.1608522261E+00  2.5533552241E-02  2.5124034890E-02  3.4776823920E-01
  5.5850000000E+03  2.0071940127E+00  7.1578417786E+00  2.5599871908E-02  2.5188529650E-02  3.4800017106E-01
  5.5900000000E+03  2.0092578044E+00  7.1548352889E+00  2.5666303392E-02  2.5253129643E-02  3.4823193683E-01
  5.5950000000E+03  2.0113218701E+00  7.1518721772E+00  2.5732846778E-02  2.5317835432E-02  3.4846353693E-01
  5.6000000000E+03  2.0133910111E+00  7.1489275218E+00  2.5799502154E-02  2.5382647541E-02  3.4869497179E-01
  5.6050000000E+03  2.0154655532E+00  7.1459867051E+00  2.5866269604E-02  2.5447565916E-02  3.4892624182E-01
  5.6100000000E+03  2.0175403801E+00  7.1430497188E+00  2.5933149216E-02  2.5512589813E-02  3.4915734744E-01
  5.6150000000E+03  2.0196154917E+00  7.1401165545E+00  2.6000141073E-02  2.5577719299E-02  3.4938828908E-01
  5.6200000000E+03  2.0216908878E+00  7.1371872038E+00  2.6067245264E-02  2.5642954443E-02  3.4961906716E-01
  5.6250000000E+03  2.0237665681E+00  7.1342616582E+00  2.6134461872E-02  2.5708295312E-02  3.4984968208E-01
  5.6300000000E+03  2.0258425325E+00  7.1313399096E+00  2.6201790985E-02  2.5773741973E-02  3.5008013435E-01
  5.6350000000E+03  2.0279187807E+00  7.1284219497E+00  2.6269232688E-02  2.5839294493E-02  3.5031042474E-01
  5.6400000000E+03  2.0299953125E+00  7.1255077700E+00  2.6336787067E-02  2.5904952941E-02  3.5054055377E-01
  5.6450000000E+03  2.0320721278E+00  7.1225973625E+00  2.6404454208E-02  2.5970717382E-02  3.5077052189E-01
  5.6500000000E+03  2.0341493662E+00  7.1196907189E+00  2.6472234196E-02  2.6036587907E-02  3.5100032956E-01
  5.6550000000E+03  2.0362278598E+00  7.1167878310E+00  2.6540127118E-02  2.6102564721E-02  3.5122997723E-01
  5.6600000000E+03  2.0383066375E+00  7.1138886907E+00  2.6608133059E-02  2.6168647731E-02  3.5145946535E-01
  5.6650000000E+03  2.0403856990E+00  7.1109932897E+00  2.6676252105E-02  2.6234837005E-02  3.5168879439E-01
  5.6700000000E+03  2.0424650442E+00  7.1081016200E+00  2.6744484341E-02  2.6301132610E-02  3.5191796480E-01
  5.6750000000E+03  2.0445446727E+00  7.1052136735E+00  2.6812829854E-02  2.6367534613E-02  3.5214697701E-01
  5.6800000000E+03  2.0466245845E+00  7.1023294421E+00  2.6881288729E-02  2.6434043080E-02  3.5237583149E-01
  5.6850000000E+03  2.0487047793E+00  7.0994865551E+00  2.6949861052E-02  2.6500658603E-02  3.5260452868E-01
  5.6900000000E+03  2.0507852568E+00  7.0966614115E+00  2.7018546909E-02  2.6567380927E-02  3.5283306903E-01
  5.6950000000E+03  2.0528660169E+00  7.0938398721E+00  2.7087346384E-02  2.6634209924E-02  3.5306145299E-01
  5.7000000000E+03  2.0549470594E+00  7.0910219292E+00  2.7156259565E-02  2.6701145659E-02  3.5328968099E-01
  5.7050000000E+03  2.0570281561E+00  7.0882075749E+00  2.7225286536E-02  2.6768188162E-02  3.5351775348E-01
  5.7100000000E+03  2.0591094231E+00  7.0853968017E+00  2.7294427383E-02  2.6835337517E-02  3.5374567091E-01
  5.7150000000E+03  2.0611909715E+00  7.0825896018E+00  2.7363682192E-02  2.6902593811E-02  3.5397343370E-01
  5.7200000000E+03  2.0632728010E+00  7.0797859676E+00  2.7433051049E-02  2.6969957110E-02  3.5420104231E-01
  5.7250000000E+03  2.0653549114E+00  7.0769858914E+00  2.7502534038E-02  2.7037427480E-02  3.5442849717E-01
  5.7300000000E+03  2.0674373026E+00  7.0741893655E+00  2.7572131246E-02  2.7105004987E-02  3.5465579872E-01
  5.7350000000E+03  2.0695199742E+00  7.0713963825E+00  2.7641842758E-02  2.7172689699E-02  3.5488294738E-01
  5.7400000000E+03  2.0716029262E+00  7.0686069348E+00  2.7711668660E-02  2.7240481682E-02  3.5510994361E-01
  5.7450000000E+03  2.0736861583E+00  7.0658210147E+00  2.7781609037E-02  2.7308381001E-02  3.5533678782E-01
  5.7500000000E+03  2.0757696703E+00  7.0630386148E+00  2.7851663974E-02  2.7376387723E-02  3.5556348046E-01
  5.7550000000E+03  2.0778538056E+00  7.0602597275E+00  2.7921833558E-02  2.7444501974E-02  3.5579002194E-01
  5.7600000000E+03  2.0799407415E+00  7.0574843454E+00  2.7992117873E-02  2.7512724202E-02  3.5601641271E-01
  5.7650000000E+03  2.0820279601E+00  7.0547124611E+00  2.8062517006E-02  2.7581054034E-02  3.5624265319E-01
  5.7700000000E+03  2.0841154609E+00  7.0519440670E+00  2.8133031041E-02  2.7649491537E-02  3.5646874380E-01
  5.7750000000E+03  2.0862032439E+00  7.0492007118E+00  2.8203660065E-02  2.7718037111E-02  3.5669468498E-01
  5.7800000000E+03  2.0882913087E+00  7.0464888001E+00  2.8274404162E-02  2.7786690925E-02  3.5692047714E-01
  5.7850000000E+03  2.0903796553E+00  7.0437802754E+00  2.8345263418E-02  2.7855452616E-02  3.5714612072E-01
  5.7900000000E+03  2.0924682835E+00  7.0410751304E+00  2.8416237918E-02  2.7924322249E-02  3.5737161613E-01
  5.7950000000E+03  2.0945571929E+00  7.0383733579E+00  2.8487327748E-02  2.7993299889E-02  3.5759696379E-01
  5.8000000000E+03  2.0966463834E+00  7.0356749510E+00  2.8558532993E-02  2.8062385603E-02  3.5782216413E-01
  5.8050000000E+03  2.0987358548E+00  7.0329799025E+00  2.8629853738E-02  2.8131579456E-02  3.5804721756E-01
  5.8100000000E+03  2.1008264739E+00  7.0302882053E+00  2.8701290070E-02  2.8200881670E-02  3.5827212450E-01
  5.8150000000E+03  2.1029183449E+00  7.0275998524E+00  2.8772842072E-02  2.8270292331E-02  3.5849688537E-01
  5.8200000000E+03  2.1050104983E+00  7.0249148367E+00  2.8844509831E-02  2.8339811331E-02  3.5872150059E-01
  5.8250000000E+03  2.1071029338E+00  7.0222331513E+00  2.8916293431E-02  2.8409438734E-02  3.5894597056E-01
  5.8300000000E+03  2.1091956513E+00  7.0195547892E+00  2.8988192959E-02  2.8479174607E-02  3.5917029571E-01
  5.8350000000E+03  2.1112886505E+00  7.0168797434E+00  2.9060208499E-02  2.8549019014E-02  3.5939447644E-01
  5.8400000000E+03  2.1133819313E+00  7.0142080070E+00  2.9132340137E-02  2.8618972021E-02  3.5961851316E-01
  5.8450000000E+03  2.1154754934E+00  7.0115395730E+00  2.9204587957E-02  2.8689033693E-02  3.5984240630E-01
  5.8500000000E+03  2.1175693366E+00  7.0088744346E+00  2.9276952045E-02  2.8759204096E-02  3.6006615624E-01
  5.8550000000E+03  2.1196634607E+00  7.0062125848E+00  2.9349432487E-02  2.8829483295E-02  3.6028976341E-01
  5.8600000000E+03  2.1217578656E+00  7.0035540169E+00  2.9422029367E-02  2.8899871354E-02  3.6051322821E-01
  5.8650000000E+03  2.1238521460E+00  7.0008987239E+00  2.9494742771E-02  2.8970368264E-02  3.6073655104E-01
  5.8700000000E+03  2.1259465517E+00  6.9982869356E+00  2.9567572784E-02  2.9040974829E-02  3.6095973232E-01
  5.8750000000E+03  2.1280412369E+00  6.9956855608E+00  2.9640519491E-02  2.9111690580E-02  3.6118277243E-01
  5.8800000000E+03  2.1301362015E+00  6.9930873646E+00  2.9713582976E-02  2.9182515459E-02  3.6140567180E-01
  5.8850000000E+03  2.1322314451E+00  6.9904923407E+00  2.9786763327E-02  2.9253449532E-02  3.6162843081E-01
  5.8900000000E+03  2.1343269676E+00  6.9879004823E+00  2.9860060626E-02  2.9324492862E-02  3.6185104987E-01
  5.8950000000E+03  2.1364227688E+00  6.9853117829E+00  2.9933474960E-02  2.9395645515E-02  3.6207352938E-01
  5.9000000000E+03  2.1385188485E+00  6.9827262361E+00  3.0007006414E-02  2.9466907556E-02  3.6229586974E-01
  5.9050000000E+03  2.1406152066E+00  6.9801438353E+00  3.0080655072E-02  2.9538279048E-02  3.6251807134E-01
  5.9100000000E+03  2.1427118427E+00  6.9775645740E+00  3.0154421020E-02  2.9609760058E-02  3.6274013458E-01
  5.9150000000E+03  2.1448087567E+00  6.9749884458E+00  3.0228304343E-02  2.9681350648E-02  3.6296205986E-01
  5.9200000000E+03  2.1469073852E+00  6.9724154441E+00  3.0302305125E-02  2.9753051161E-02  3.6318384757E-01
  5.9250000000E+03  2.1490064963E+00  6.9698455627E+00  3.0376423453E-02  2.9824861426E-02  3.6340549811E-01
  5.9300000000E+03  2.1511058866E+00  6.9672787950E+00  3.0450659410E-02  2.9896781467E-02  3.6362701186E-01
  5.9350000000E+03  2.1532055558E+00  6.9647151347E+00  3.0525013082E-02  2.9968811350E-02  3.6384838922E-01
  5.9400000000E+03  2.1553055037E+00  6.9621545754E+00  3.0599484554E-02  3.0040951139E-02  3.6406963058E-01
  5.9450000000E+03  2.1574057301E+00  6.9595971108E+00  3.0674073911E-02  3.0113200898E-02  3.6429073633E-01
  5.9500000000E+03  2.1595062349E+00  6.9570427344E+00  3.0748781237E-02  3.0185560691E-02  3.6451170686E-01
  5.9550000000E+03  2.1616070178E+00  6.9544914400E+00  3.0823606618E-02  3.0258030583E-02  3.6473254255E-01
  5.9600000000E+03  2.1637080787E+00  6.9519432213E+00  3.0898550139E-02  3.0330610637E-02  3.6495324380E-01
  5.9650000000E+03  2.1658094173E+00  6.9494417545E+00  3.0973611884E-02  3.0403301755E-02  3.6517381098E-01
  5.9700000000E+03  2.1679110334E+00  6.9469450224E+00  3.1048791939E-02  3.0476103205E-02  3.6539424448E-01
  5.9750000000E+03  2.1700273906E+00  6.9444512764E+00  3.1124090388E-02  3.0549017884E-02  3.6561454470E-01
  5.9800000000E+03  2.1721451301E+00  6.9419605104E+00  3.1199507316E-02  3.0622043227E-02  3.6583471199E-01
  5.9850000000E+03  2.1742631639E+00  6.9394727183E+00  3.1275042807E-02  3.0695179081E-02  3.6605474677E-01
  5.9900000000E+03  2.1763814916E+00  6.9369878942E+00  3.1350696948E-02  3.0768425512E-02  3.6627464939E-01
  5.9950000000E+03  2.1785001131E+00  6.9345060319E+00  3.1426469823E-02  3.0841782582E-02  3.6649442024E-01
  6.0000000000E+03  2.1806190281E+00  6.9320271256E+00  3.1502361515E-02  3.0915250356E-02  3.6671405971E-01
  6.0050000000E+03  2.1827382365E+00  6.9295511692E+00  3.1579018428E-02  3.0989451308E-02  3.6693356817E-01
  6.0100000000E+03  2.1848577381E+00  6.9270781568E+00  3.1655796967E-02  3.1063765548E-02  3.6715294599E-01
  6.0150000000E+03  2.1869775326E+00  6.9246080824E+00  3.1732697220E-02  3.1138193144E-02  3.6737219356E-01
  6.0200000000E+03  2.1890976198E+00  6.9221409401E+00  3.1809719277E-02  3.1212734164E-02  3.6759131125E-01
  6.0250000000E+03  2.1912179996E+00  6.9196767240E+00  3.1886863228E-02  3.1287388675E-02  3.6781029943E-01
  6.0300000000E+03  2.1933434362E+00  6.9172154282E+00  3.1964129162E-02  3.1362157719E-02  3.6802915848E-01
  6.0350000000E+03  2.1954698202E+00  6.9147570468E+00  3.2041517167E-02  3.1437040528E-02  3.6824788877E-01
  6.0400000000E+03  2.1975965022E+00  6.9123015739E+00  3.2119027335E-02  3.1512037038E-02  3.6846649067E-01
  6.0450000000E+03  2.1997234819E+00  6.9098490038E+00  3.2196659753E-02  3.1587147316E-02  3.6868496455E-01
  6.0500000000E+03  2.2018507591E+00  6.9073993305E+00  3.2274414511E-02  3.1662371428E-02  3.6890331079E-01
  6.0550000000E+03  2.2039783336E+00  6.9049525483E+00  3.2352291698E-02  3.1737709443E-02  3.6912152976E-01
  6.0600000000E+03  2.2061062052E+00  6.9025421843E+00  3.2430291404E-02  3.1813162138E-02  3.6933962181E-01
  6.0650000000E+03  2.2082343738E+00  6.9001445742E+00  3.2508413718E-02  3.1888729089E-02  3.6955758733E-01
  6.0700000000E+03  2.2103628390E+00  6.8977497717E+00  3.2586658729E-02  3.1964410151E-02  3.6977542667E-01
  6.0750000000E+03  2.2124916007E+00  6.8953577712E+00  3.2665026526E-02  3.2040205392E-02  3.6999314020E-01
  6.0800000000E+03  2.2146206587E+00  6.8929685670E+00  3.2743517199E-02  3.2116114879E-02  3.7021072833E-01
  6.0850000000E+03  2.2167787280E+00  6.8905821537E+00  3.2822130836E-02  3.2192144733E-02  3.7042819179E-01
  6.0900000000E+03  2.2189477518E+00  6.8881985256E+00  3.2900867528E-02  3.2268291255E-02  3.7064553103E-01
  6.0950000000E+03  2.2211171152E+00  6.8858176773E+00  3.2979727362E-02  3.2344552278E-02  3.7086274642E-01
  6.1000000000E+03  2.2232868180E+00  6.8834396032E+00  3.3058710429E-02  3.2420927869E-02  3.7107983835E-01
  6.1050000000E+03  2.2254568599E+00  6.8810642979E+00  3.3137816817E-02  3.2497418096E-02  3.7129680717E-01
  6.1100000000E+03  2.2276272408E+00  6.8786917557E+00  3.3217046616E-02  3.2574023025E-02  3.7151365325E-01
  6.1150000000E+03  2.2297979604E+00  6.8763219713E+00  3.3296399914E-02  3.2650742723E-02  3.7173037696E-01
  6.1200000000E+03  2.2319690185E+00  6.8739549393E+00  3.3375876801E-02  3.2727577256E-02  3.7194697866E-01
  6.1250000000E+03  2.2341404148E+00  6.8715906541E+00  3.3455477366E-02  3.2804526691E-02  3.7216345872E-01
  6.1300000000E+03  2.2363121492E+00  6.8692291103E+00  3.3535201698E-02  3.2881591095E-02  3.7237981751E-01
  6.1350000000E+03  2.2384842213E+00  6.8668703026E+00  3.3615049886E-02  3.2958770534E-02  3.7259605538E-01
  6.1400000000E+03  2.2406564538E+00  6.8645142255E+00  3.3695022020E-02  3.3036065036E-02  3.7281217271E-01
  6.1450000000E+03  2.2428288280E+00  6.8621608736E+00  3.3775118187E-02  3.3113474663E-02  3.7302816984E-01
  6.1500000000E+03  2.2450015390E+00  6.8598102417E+00  3.3855338478E-02  3.3190999524E-02  3.7324404714E-01
  6.1550000000E+03  2.2471745865E+00  6.8574736491E+00  3.3935682981E-02  3.3268639952E-02  3.7345980498E-01
  6.1600000000E+03  2.2493479703E+00  6.8551699843E+00  3.4016151785E-02  3.3346396463E-02  3.7367544371E-01
  6.1650000000E+03  2.2515216901E+00  6.8528689616E+00  3.4096744980E-02  3.3424268416E-02  3.7389096368E-01
  6.1700000000E+03  2.2536957458E+00  6.8505705758E+00  3.4177462654E-02  3.3502255877E-02  3.7410636526E-01
  6.1750000000E+03  2.2558701371E+00  6.8482748217E+00  3.4258304896E-02  3.3580358912E-02  3.7432164880E-01
  6.1800000000E+03  2.2580448638E+00  6.8459816941E+00  3.4339271795E-02  3.3658577586E-02  3.7453681466E-01
  6.1850000000E+03  2.2602199257E+00  6.8436911880E+00  3.4420363441E-02  3.3736911967E-02  3.7475186318E-01
  6.1900000000E+03  2.2623953225E+00  6.8414032983E+00  3.4501579922E-02  3.3815362119E-02  3.7496679474E-01
  6.1950000000E+03  2.2645710220E+00  6.8391180198E+00  3.4582921327E-02  3.3893928102E-02  3.7518160967E-01
  6.2000000000E+03  2.2667468158E+00  6.8368353474E+00  3.4664387745E-02  3.3972609934E-02  3.7539630834E-01
  6.2050000000E+03  2.2689229435E+00  6.8345552761E+00  3.4745979265E-02  3.4051407736E-02  3.7561089108E-01
  6.2100000000E+03  2.2710994051E+00  6.8322778008E+00  3.4827695976E-02  3.4130321572E-02  3.7582535826E-01
  6.2150000000E+03  2.2732762002E+00  6.8300029166E+00  3.4909537967E-02  3.4209351509E-02  3.7603971022E-01
  6.2200000000E+03  2.2754533286E+00  6.8277306183E+00  3.4991505326E-02  3.4288497611E-02  3.7625394731E-01
  6.2250000000E+03  2.2776307902E+00  6.8254609009E+00  3.5073598143E-02  3.4367759946E-02  3.7646806989E-01
  6.2300000000E+03  2.2798085848E+00  6.8231937594E+00  3.5155816506E-02  3.4447138577E-02  3.7668207829E-01
  6.2350000000E+03  2.2819867120E+00  6.8209291890E+00  3.5238160504E-02  3.4526633572E-02  3.7689597286E-01
  6.2400000000E+03  2.2841651717E+00  6.8186671845E+00  3.5320630226E-02  3.4606244994E-02  3.7710975395E-01
  6.2450000000E+03  2.2863439636E+00  6.8164077410E+00  3.5403225761E-02  3.4685972910E-02  3.7732342191E-01
  6.2500000000E+03  2.2885230877E+00  6.8141508536E+00  3.5485947198E-02  3.4765817384E-02  3.7753697708E-01
  6.2550000000E+03  2.2907027475E+00  6.8119147726E+00  3.5568794625E-02  3.4845779008E-02  3.7775041980E-01
  6.2600000000E+03  2.2928828471E+00  6.8097026861E+00  3.5651768131E-02  3.4925857915E-02  3.7796375042E-01
  6.2650000000E+03  2.2950632785E+00  6.8074930832E+00  3.5734867806E-02  3.5006053587E-02  3.7817696927E-01
  6.2700000000E+03  2.2972440415E+00  6.8052859592E+00  3.5818093737E-02  3.5086366088E-02  3.7839007670E-01
  6.2750000000E+03  2.2994251358E+00  6.8030813092E+00  3.5901446013E-02  3.5166795484E-02  3.7860307306E-01
  6.2800000000E+03  2.3016065611E+00  6.8008791287E+00  3.5984924724E-02  3.5247341839E-02  3.7881595867E-01
  6.2850000000E+03  2.3037883174E+00  6.7986794127E+00  3.6068529958E-02  3.5328005219E-02  3.7902873388E-01
  6.2900000000E+03  2.3059704044E+00  6.7964821567E+00  3.6152261804E-02  3.5408785689E-02  3.7924139902E-01
  6.2950000000E+03  2.3081528218E+00  6.7942873559E+00  3.6236120349E-02  3.5489683313E-02  3.7945395444E-01
  6.3000000000E+03  2.3103355695E+00  6.7920950056E+00  3.6320105684E-02  3.5570698156E-02  3.7966640048E-01
  6.3050000000E+03  2.3125186473E+00  6.7899051012E+00  3.6404217897E-02  3.5651830283E-02  3.7987873745E-01
  6.3100000000E+03  2.3147020281E+00  6.7877176379E+00  3.6488457076E-02  3.5733079753E-02  3.8009096571E-01
  6.3150000000E+03  2.3168854547E+00  6.7855326112E+00  3.6572823310E-02  3.5814446568E-02  3.8030308559E-01
  6.3200000000E+03  2.3190692104E+00  6.7833500164E+00  3.6657316687E-02  3.5895930860E-02  3.8051509742E-01
  6.3250000000E+03  2.3212532949E+00  6.7811698488E+00  3.6741937297E-02  3.5977532695E-02  3.8072700154E-01
  6.3300000000E+03  2.3234377081E+00  6.7789921039E+00  3.6826685228E-02  3.6059252136E-02  3.8093879827E-01
  6.3350000000E+03  2.3256224497E+00  6.7768167770E+00  3.6911560569E-02  3.6141089248E-02  3.8115048795E-01
  6.3400000000E+03  2.3278075196E+00  6.7746438635E+00  3.6996563408E-02  3.6223044096E-02  3.8136207090E-01
  6.3450000000E+03  2.3299929175E+00  6.7724733590E+00  3.7081693833E-02  3.6305116744E-02  3.8157354747E-01
  6.3500000000E+03  2.3321786432E+00  6.7703052588E+00  3.7166951934E-02  3.6387307255E-02  3.8178491798E-01
