#[MATERIAL DEFINITION FOR MC-GPU: interaction mean free path and sampling data from PENELOPE 2018]
#[MATERIAL NAME]
# teeth                                                         
#[NOMINAL DENSITY (g/cm^3)]
#   2.75000000
#[NUMBER OF DATA VALUES]
#  23002
#[MEAN FREE PATHS (cm) (ie, average distance between interactions)]
#[Energy (eV)     | Rayleigh        | Compton         | Photoelectric   | TOTAL (+pair prod) (cm) | Rayleigh: max cumul prob F^2]
  5.0000000000E+03  3.6515190011E-01  4.0642254425E+00  1.5491105672E-03  1.5419811700E-03  2.4552306570E-01
  5.0050000000E+03  3.6538412681E-01  4.0616130026E+00  1.5532453549E-03  1.5460817185E-03  2.4577171413E-01
  5.0100000000E+03  3.6561626911E-01  4.0590048480E+00  1.5573870032E-03  1.5501889972E-03  2.4602023833E-01
  5.0150000000E+03  3.6584805521E-01  4.0564009673E+00  1.5615355167E-03  1.5543030054E-03  2.4626863848E-01
  5.0200000000E+03  3.6607959460E-01  4.0538013494E+00  1.5656908997E-03  1.5584237489E-03  2.4651691474E-01
  5.0250000000E+03  3.6631104980E-01  4.0512059829E+00  1.5698531568E-03  1.5625512349E-03  2.4676506728E-01
  5.0300000000E+03  3.6654242094E-01  4.0486148568E+00  1.5740222924E-03  1.5666854674E-03  2.4701309626E-01
  5.0350000000E+03  3.6677370811E-01  4.0460279599E+00  1.5781983110E-03  1.5708264504E-03  2.4726100185E-01
  5.0400000000E+03  3.6700491145E-01  4.0434452810E+00  1.5823812169E-03  1.5749741880E-03  2.4750878422E-01
  5.0450000000E+03  3.6723603106E-01  4.0408668092E+00  1.5865710146E-03  1.5791286843E-03  2.4775644354E-01
  5.0500000000E+03  3.6746706706E-01  4.0382925335E+00  1.5907677085E-03  1.5832899434E-03  2.4800397998E-01
  5.0550000000E+03  3.6769801955E-01  4.0357224428E+00  1.5949713031E-03  1.5874579693E-03  2.4825139369E-01
  5.0600000000E+03  3.6793711446E-01  4.0331565262E+00  1.5991818028E-03  1.5916329199E-03  2.4849868485E-01
  5.0650000000E+03  3.6819140782E-01  4.0305947729E+00  1.6033992120E-03  1.5958149338E-03  2.4874585362E-01
  5.0700000000E+03  3.6844562576E-01  4.0280371720E+00  1.6076235351E-03  1.6000037302E-03  2.4899290018E-01
  5.0750000000E+03  3.6869976838E-01  4.0254837126E+00  1.6118547767E-03  1.6041993133E-03  2.4923982469E-01
  5.0800000000E+03  3.6895383578E-01  4.0229343840E+00  1.6160929410E-03  1.6084016871E-03  2.4948662732E-01
  5.0850000000E+03  3.6920782806E-01  4.0204174467E+00  1.6203380326E-03  1.6126108602E-03  2.4973330823E-01
  5.0900000000E+03  3.6946174530E-01  4.0179072966E+00  1.6245900559E-03  1.6168268326E-03  2.4997986759E-01
  5.0950000000E+03  3.6971558761E-01  4.0154011760E+00  1.6288490152E-03  1.6210496080E-03  2.5022630558E-01
  5.1000000000E+03  3.6996935508E-01  4.0128990744E+00  1.6331149150E-03  1.6252791904E-03  2.5047262236E-01
  5.1050000000E+03  3.7022304781E-01  4.0104009815E+00  1.6373877597E-03  1.6295155838E-03  2.5071881810E-01
  5.1100000000E+03  3.7048205546E-01  4.0079068869E+00  1.6416675537E-03  1.6337588971E-03  2.5096489296E-01
  5.1150000000E+03  3.7074104519E-01  4.0054167804E+00  1.6459543015E-03  1.6380090315E-03  2.5121084712E-01
  5.1200000000E+03  3.7099996266E-01  4.0029306516E+00  1.6502480074E-03  1.6422659899E-03  2.5145668074E-01
  5.1250000000E+03  3.7125880797E-01  4.0004484904E+00  1.6545486758E-03  1.6465297764E-03  2.5170239399E-01
  5.1300000000E+03  3.7151758119E-01  3.9979702865E+00  1.6588563113E-03  1.6508003951E-03  2.5194798704E-01
  5.1350000000E+03  3.7177628243E-01  3.9954960298E+00  1.6631709181E-03  1.6550778499E-03  2.5219346006E-01
  5.1400000000E+03  3.7203491177E-01  3.9930257101E+00  1.6674925007E-03  1.6593621450E-03  2.5243881321E-01
  5.1450000000E+03  3.7229346931E-01  3.9905593175E+00  1.6718210634E-03  1.6636532843E-03  2.5268404664E-01
  5.1500000000E+03  3.7255195512E-01  3.9880968417E+00  1.6761566108E-03  1.6679512719E-03  2.5292916052E-01
  5.1550000000E+03  3.7281211880E-01  3.9856382729E+00  1.6804991471E-03  1.6722561471E-03  2.5317415505E-01
  5.1600000000E+03  3.7307369034E-01  3.9831836010E+00  1.6848486768E-03  1.6765679087E-03  2.5341903040E-01
  5.1650000000E+03  3.7333519180E-01  3.9807494966E+00  1.6892052043E-03  1.6808865342E-03  2.5366378675E-01
  5.1700000000E+03  3.7359662327E-01  3.9783326532E+00  1.6935687340E-03  1.6852120271E-03  2.5390842428E-01
  5.1750000000E+03  3.7385798482E-01  3.9759196112E+00  1.6979392702E-03  1.6895443890E-03  2.5415294318E-01
  5.1800000000E+03  3.7411927656E-01  3.9735103611E+00  1.7023168174E-03  1.6938836240E-03  2.5439734363E-01
  5.1850000000E+03  3.7438049856E-01  3.9711048932E+00  1.7067013800E-03  1.6982297360E-03  2.5464162581E-01
  5.1900000000E+03  3.7464165090E-01  3.9687031979E+00  1.7110929623E-03  1.7025827291E-03  2.5488578989E-01
  5.1950000000E+03  3.7490273369E-01  3.9663052657E+00  1.7154915687E-03  1.7069426073E-03  2.5512983607E-01
  5.2000000000E+03  3.7516374402E-01  3.9639110871E+00  1.7198972037E-03  1.7113093746E-03  2.5537376452E-01
  5.2050000000E+03  3.7542431665E-01  3.9615206526E+00  1.7243098715E-03  1.7156830273E-03  2.5561757543E-01
  5.2100000000E+03  3.7568481981E-01  3.9591339527E+00  1.7287295767E-03  1.7200635771E-03  2.5586126897E-01
  5.2150000000E+03  3.7594525359E-01  3.9567509781E+00  1.7331563235E-03  1.7244510280E-03  2.5610484532E-01
  5.2200000000E+03  3.7620561807E-01  3.9543717194E+00  1.7375901163E-03  1.7288453840E-03  2.5634830468E-01
  5.2250000000E+03  3.7646591334E-01  3.9519961672E+00  1.7420309596E-03  1.7332466491E-03  2.5659164722E-01
  5.2300000000E+03  3.7672613948E-01  3.9496243122E+00  1.7464788577E-03  1.7376548273E-03  2.5683487311E-01
  5.2350000000E+03  3.7698629657E-01  3.9472561451E+00  1.7509338150E-03  1.7420699226E-03  2.5707798255E-01
  5.2400000000E+03  3.7724638471E-01  3.9448916567E+00  1.7553958358E-03  1.7464919390E-03  2.5732097571E-01
  5.2450000000E+03  3.7750640397E-01  3.9425308378E+00  1.7598734318E-03  1.7509293016E-03  2.5756385277E-01
  5.2500000000E+03  3.7776626683E-01  3.9402009401E+00  1.7643940151E-03  1.7554091465E-03  2.5780661392E-01
  5.2550000000E+03  3.7802592156E-01  3.9378765937E+00  1.7689218652E-03  1.7598961085E-03  2.5804925934E-01
  5.2600000000E+03  3.7828550757E-01  3.9355558270E+00  1.7734569869E-03  1.7643901943E-03  2.5829178920E-01
  5.2650000000E+03  3.7854502494E-01  3.9332386312E+00  1.7779993849E-03  1.7688914083E-03  2.5853420369E-01
  5.2700000000E+03  3.7880447376E-01  3.9309249972E+00  1.7825490638E-03  1.7733997549E-03  2.5877650299E-01
  5.2750000000E+03  3.7906385411E-01  3.9286149163E+00  1.7871060283E-03  1.7779152382E-03  2.5901868728E-01
  5.2800000000E+03  3.7932316607E-01  3.9263083796E+00  1.7916702831E-03  1.7824378626E-03  2.5926075674E-01
  5.2850000000E+03  3.7958240973E-01  3.9240053784E+00  1.7962418330E-03  1.7869676324E-03  2.5950271155E-01
  5.2900000000E+03  3.7984158516E-01  3.9217059039E+00  1.8008206825E-03  1.7915045517E-03  2.5974455189E-01
  5.2950000000E+03  3.8010069246E-01  3.9194099474E+00  1.8054068364E-03  1.7960486250E-03  2.5998627795E-01
  5.3000000000E+03  3.8037097648E-01  3.9171175002E+00  1.8100002993E-03  1.8006001085E-03  2.6022788990E-01
  5.3050000000E+03  3.8064663784E-01  3.9148285535E+00  1.8146010760E-03  1.8051588788E-03  2.6046938792E-01
  5.3100000000E+03  3.8092223901E-01  3.9125430989E+00  1.8192091711E-03  1.8097248188E-03  2.6071077220E-01
  5.3150000000E+03  3.8119778006E-01  3.9102611276E+00  1.8238245892E-03  1.8142979327E-03  2.6095204292E-01
  5.3200000000E+03  3.8147326105E-01  3.9079826311E+00  1.8284473351E-03  1.8188782248E-03  2.6119320025E-01
  5.3250000000E+03  3.8174868205E-01  3.9057076009E+00  1.8330774134E-03  1.8234656995E-03  2.6143424438E-01
  5.3300000000E+03  3.8202404313E-01  3.9034372877E+00  1.8377148288E-03  1.8280603612E-03  2.6167517549E-01
  5.3350000000E+03  3.8229934436E-01  3.9011975287E+00  1.8423595860E-03  1.8326622200E-03  2.6191599375E-01
  5.3400000000E+03  3.8257458581E-01  3.8989611511E+00  1.8470116896E-03  1.8372712742E-03  2.6215669935E-01
  5.3450000000E+03  3.8284976756E-01  3.8967281468E+00  1.8516711443E-03  1.8418875281E-03  2.6239729247E-01
  5.3500000000E+03  3.8312953155E-01  3.8944985074E+00  1.8563379547E-03  1.8465110937E-03  2.6263777329E-01
  5.3550000000E+03  3.8340991992E-01  3.8922722249E+00  1.8610121256E-03  1.8511418843E-03  2.6287814198E-01
  5.3600000000E+03  3.8369025152E-01  3.8900492909E+00  1.8656936616E-03  1.8557798883E-03  2.6311839874E-01
  5.3650000000E+03  3.8397052642E-01  3.8878296973E+00  1.8703825673E-03  1.8604251100E-03  2.6335854373E-01
  5.3700000000E+03  3.8425074468E-01  3.8856134361E+00  1.8750788474E-03  1.8650775537E-03  2.6359857715E-01
  5.3750000000E+03  3.8453090637E-01  3.8834004991E+00  1.8797825066E-03  1.8697372236E-03  2.6383849916E-01
  5.3800000000E+03  3.8481101154E-01  3.8811908782E+00  1.8844935495E-03  1.8744041240E-03  2.6407830995E-01
  5.3850000000E+03  3.8509106027E-01  3.8789845655E+00  1.8892119807E-03  1.8790782591E-03  2.6431800971E-01
  5.3900000000E+03  3.8537105262E-01  3.8767815528E+00  1.8939378050E-03  1.8837596333E-03  2.6455759860E-01
  5.3950000000E+03  3.8565098865E-01  3.8745818322E+00  1.8986710270E-03  1.8884482507E-03  2.6479707681E-01
  5.4000000000E+03  3.8593065186E-01  3.8723853957E+00  1.9034116513E-03  1.8931441104E-03  2.6503644452E-01
  5.4050000000E+03  3.8621025389E-01  3.8701922355E+00  1.9081596826E-03  1.8978472217E-03  2.6527570191E-01
  5.4100000000E+03  3.8648979968E-01  3.8680023435E+00  1.9129151255E-03  1.9025575890E-03  2.6551484916E-01
  5.4150000000E+03  3.8676928929E-01  3.8658157119E+00  1.9176779847E-03  1.9072752165E-03  2.6575388645E-01
  5.4200000000E+03  3.8704872277E-01  3.8636566808E+00  1.9224482648E-03  1.9120001144E-03  2.6599281396E-01
  5.4250000000E+03  3.8732810021E-01  3.8615040389E+00  1.9272259704E-03  1.9167322818E-03  2.6623163186E-01
  5.4300000000E+03  3.8760742165E-01  3.8593545779E+00  1.9320111062E-03  1.9214717223E-03  2.6647034034E-01
  5.4350000000E+03  3.8788668716E-01  3.8572082899E+00  1.9368036769E-03  1.9262184400E-03  2.6670893958E-01
  5.4400000000E+03  3.8816589681E-01  3.8550651676E+00  1.9416036871E-03  1.9309724392E-03  2.6694742975E-01
  5.4450000000E+03  3.8844505065E-01  3.8529252032E+00  1.9464111413E-03  1.9357337241E-03  2.6718581105E-01
  5.4500000000E+03  3.8872866914E-01  3.8507883893E+00  1.9512260443E-03  1.9405024116E-03  2.6742408363E-01
  5.4550000000E+03  3.8901226164E-01  3.8486547182E+00  1.9560484007E-03  1.9452783948E-03  2.6766224769E-01
  5.4600000000E+03  3.8929580093E-01  3.8465241826E+00  1.9608782151E-03  1.9500616772E-03  2.6790030341E-01
  5.4650000000E+03  3.8957928707E-01  3.8443967750E+00  1.9657154922E-03  1.9548522631E-03  2.6813825096E-01
  5.4700000000E+03  3.8986272011E-01  3.8422724879E+00  1.9705602365E-03  1.9596501568E-03  2.6837609052E-01
  5.4750000000E+03  3.9014610011E-01  3.8401513138E+00  1.9754124528E-03  1.9644553623E-03  2.6861382227E-01
  5.4800000000E+03  3.9042942714E-01  3.8380332454E+00  1.9802721455E-03  1.9692678840E-03  2.6885144640E-01
  5.4850000000E+03  3.9071270125E-01  3.8359182753E+00  1.9851393195E-03  1.9740877261E-03  2.6908896307E-01
  5.4900000000E+03  3.9099592250E-01  3.8338063962E+00  1.9900139792E-03  1.9789148928E-03  2.6932637247E-01
  5.4950000000E+03  3.9127909094E-01  3.8316976007E+00  1.9948961293E-03  1.9837493883E-03  2.6956367479E-01
  5.5000000000E+03  3.9156233698E-01  3.8295918815E+00  1.9997857744E-03  1.9885912201E-03  2.6980087018E-01
  5.5050000000E+03  3.9184554206E-01  3.8275011893E+00  2.0047028751E-03  1.9934601256E-03  2.7003795885E-01
  5.5100000000E+03  3.9212869457E-01  3.8254283005E+00  2.0096275582E-03  1.9983364528E-03  2.7027494095E-01
  5.5150000000E+03  3.9241179460E-01  3.8233584129E+00  2.0145598282E-03  2.0032202023E-03  2.7051181669E-01
  5.5200000000E+03  3.9269484218E-01  3.8212915196E+00  2.0194996901E-03  2.0081113783E-03  2.7074858622E-01
  5.5250000000E+03  3.9297783738E-01  3.8192276135E+00  2.0244471484E-03  2.0130099852E-03  2.7098524973E-01
  5.5300000000E+03  3.9326078025E-01  3.8171666875E+00  2.0294022079E-03  2.0179160272E-03  2.7122180741E-01
  5.5350000000E+03  3.9354367086E-01  3.8151087346E+00  2.0343648734E-03  2.0228295086E-03  2.7145825942E-01
  5.5400000000E+03  3.9382650926E-01  3.8130537480E+00  2.0393351496E-03  2.0277504338E-03  2.7169460595E-01
  5.5450000000E+03  3.9410929550E-01  3.8110017207E+00  2.0443130412E-03  2.0326788070E-03  2.7193084717E-01
  5.5500000000E+03  3.9439883891E-01  3.8089526456E+00  2.0492985529E-03  2.0376148144E-03  2.7216698327E-01
  5.5550000000E+03  3.9469062873E-01  3.8069065160E+00  2.0542916895E-03  2.0425583412E-03  2.7240301441E-01
  5.5600000000E+03  3.9498237161E-01  3.8048633250E+00  2.0592924557E-03  2.0475093308E-03  2.7263894079E-01
  5.5650000000E+03  3.9527406761E-01  3.8028230656E+00  2.0643008561E-03  2.0524677875E-03  2.7287476258E-01
  5.5700000000E+03  3.9556571677E-01  3.8007857311E+00  2.0693168956E-03  2.0574337155E-03  2.7311047995E-01
  5.5750000000E+03  3.9585731915E-01  3.7987513146E+00  2.0743405787E-03  2.0624071192E-03  2.7334609308E-01
  5.5800000000E+03  3.9614887480E-01  3.7967198094E+00  2.0793719104E-03  2.0673880028E-03  2.7358160216E-01
  5.5850000000E+03  3.9644038375E-01  3.7946912087E+00  2.0844108952E-03  2.0723763707E-03  2.7381700736E-01
  5.5900000000E+03  3.9673184607E-01  3.7926655057E+00  2.0894575379E-03  2.0773722272E-03  2.7405230886E-01
  5.5950000000E+03  3.9702326180E-01  3.7906615697E+00  2.0945118431E-03  2.0823755822E-03  2.7428750684E-01
  5.6000000000E+03  3.9731998022E-01  3.7886674621E+00  2.0995738157E-03  2.0873865841E-03  2.7452260147E-01
  5.6050000000E+03  3.9762235996E-01  3.7866761818E+00  2.1046434603E-03  2.0924052466E-03  2.7475759293E-01
  5.6100000000E+03  3.9792469991E-01  3.7846877222E+00  2.1097207816E-03  2.0974314171E-03  2.7499248140E-01
  5.6150000000E+03  3.9822700009E-01  3.7827020769E+00  2.1148057843E-03  2.1024650999E-03  2.7522726706E-01
  5.6200000000E+03  3.9852926055E-01  3.7807192393E+00  2.1198984731E-03  2.1075062993E-03  2.7546195009E-01
  5.6250000000E+03  3.9883148132E-01  3.7787392030E+00  2.1249988528E-03  2.1125550195E-03  2.7569653066E-01
  5.6300000000E+03  3.9913366246E-01  3.7767619616E+00  2.1301069280E-03  2.1176112649E-03  2.7593100896E-01
  5.6350000000E+03  3.9943580400E-01  3.7747875086E+00  2.1352227034E-03  2.1226750397E-03  2.7616538523E-01
  5.6400000000E+03  3.9973790598E-01  3.7728158377E+00  2.1403461838E-03  2.1277463483E-03  2.7639965966E-01
  5.6450000000E+03  4.0003996843E-01  3.7708469424E+00  2.1454773738E-03  2.1328251948E-03  2.7663383244E-01
  5.6500000000E+03  4.0034195954E-01  3.7688808164E+00  2.1506162781E-03  2.1379115827E-03  2.7686790375E-01
  5.6550000000E+03  4.0064369000E-01  3.7669174533E+00  2.1557629014E-03  2.1430055109E-03  2.7710187377E-01
  5.6600000000E+03  4.0094538091E-01  3.7649568468E+00  2.1609172485E-03  2.1481069898E-03  2.7733574268E-01
  5.6650000000E+03  4.0124703230E-01  3.7629989907E+00  2.1660793240E-03  2.1532160238E-03  2.7756951068E-01
  5.6700000000E+03  4.0154864421E-01  3.7610438786E+00  2.1712491325E-03  2.1583326171E-03  2.7780317795E-01
  5.6750000000E+03  4.0185021669E-01  3.7590915043E+00  2.1764266789E-03  2.1634567740E-03  2.7803674467E-01
  5.6800000000E+03  4.0215174977E-01  3.7571418616E+00  2.1816119677E-03  2.1685884987E-03  2.7827021101E-01
  5.6850000000E+03  4.0245324350E-01  3.7552131314E+00  2.1868050037E-03  2.1737278017E-03  2.7850357718E-01
  5.6900000000E+03  4.0275469790E-01  3.7532939020E+00  2.1920057915E-03  2.1788746834E-03  2.7873684335E-01
  5.6950000000E+03  4.0305611303E-01  3.7513773380E+00  2.1972143359E-03  2.1840291458E-03  2.7897000970E-01
  5.7000000000E+03  4.0335748892E-01  3.7494634333E+00  2.2024306415E-03  2.1891911932E-03  2.7920307641E-01
  5.7050000000E+03  4.0365902984E-01  3.7475521819E+00  2.2076547130E-03  2.1943608358E-03  2.7943604368E-01
  5.7100000000E+03  4.0396063142E-01  3.7456435777E+00  2.2128865551E-03  2.1995380750E-03  2.7966891168E-01
  5.7150000000E+03  4.0426219408E-01  3.7437376149E+00  2.2181261724E-03  2.2047229119E-03  2.7990168060E-01
  5.7200000000E+03  4.0456371784E-01  3.7418342875E+00  2.2233735696E-03  2.2099153509E-03  2.8013435061E-01
  5.7250000000E+03  4.0486520275E-01  3.7399335894E+00  2.2286287515E-03  2.2151153962E-03  2.8036692191E-01
  5.7300000000E+03  4.0516664884E-01  3.7380355149E+00  2.2338917227E-03  2.2203230521E-03  2.8059939467E-01
  5.7350000000E+03  4.0546805616E-01  3.7361400579E+00  2.2391624878E-03  2.2255383227E-03  2.8083176908E-01
  5.7400000000E+03  4.0576942474E-01  3.7342472126E+00  2.2444410515E-03  2.2307612124E-03  2.8106404532E-01
  5.7450000000E+03  4.0607075462E-01  3.7323569731E+00  2.2497274186E-03  2.2359917254E-03  2.8129622357E-01
  5.7500000000E+03  4.0637204584E-01  3.7304693336E+00  2.2550215936E-03  2.2412298658E-03  2.8152830401E-01
  5.7550000000E+03  4.0667366417E-01  3.7285842883E+00  2.2603235812E-03  2.2464756492E-03  2.8176028683E-01
  5.7600000000E+03  4.0697792709E-01  3.7267018313E+00  2.2656333862E-03  2.2517291508E-03  2.8199217221E-01
  5.7650000000E+03  4.0728215335E-01  3.7248219568E+00  2.2709510131E-03  2.2569902932E-03  2.8222396032E-01
  5.7700000000E+03  4.0758634298E-01  3.7229446591E+00  2.2762764667E-03  2.2622590807E-03  2.8245565136E-01
  5.7750000000E+03  4.0789049603E-01  3.7210804500E+00  2.2816097515E-03  2.2675355215E-03  2.8268724550E-01
  5.7800000000E+03  4.0819461254E-01  3.7192324486E+00  2.2869508723E-03  2.2728196210E-03  2.8291874292E-01
  5.7850000000E+03  4.0849869253E-01  3.7173869618E+00  2.2922998338E-03  2.2781113783E-03  2.8315014381E-01
  5.7900000000E+03  4.0880273604E-01  3.7155439839E+00  2.2976566405E-03  2.2834107977E-03  2.8338144835E-01
  5.7950000000E+03  4.0910674311E-01  3.7137035093E+00  2.3030212971E-03  2.2887178835E-03  2.8361265671E-01
  5.8000000000E+03  4.0941071378E-01  3.7118655325E+00  2.3083938084E-03  2.2940326397E-03  2.8384376908E-01
  5.8050000000E+03  4.0971464808E-01  3.7100300480E+00  2.3137741788E-03  2.2993550708E-03  2.8407478565E-01
  5.8100000000E+03  4.1001846829E-01  3.7081970501E+00  2.3191624132E-03  2.3046851783E-03  2.8430570658E-01
  5.8150000000E+03  4.1032216515E-01  3.7063665336E+00  2.3245585161E-03  2.3100229663E-03  2.8453653207E-01
  5.8200000000E+03  4.1062582564E-01  3.7045384927E+00  2.3299624922E-03  2.3153684416E-03  2.8476726229E-01
  5.8250000000E+03  4.1092944980E-01  3.7027129221E+00  2.3353743462E-03  2.3207216085E-03  2.8499789742E-01
  5.8300000000E+03  4.1123303767E-01  3.7008898164E+00  2.3407940827E-03  2.3260824712E-03  2.8522843764E-01
  5.8350000000E+03  4.1153658928E-01  3.6990691700E+00  2.3462217063E-03  2.3314510339E-03  2.8545888314E-01
  5.8400000000E+03  4.1184010467E-01  3.6972509775E+00  2.3516572217E-03  2.3368273007E-03  2.8568923409E-01
  5.8450000000E+03  4.1214358387E-01  3.6954352337E+00  2.3571006335E-03  2.3422112760E-03  2.8591949068E-01
  5.8500000000E+03  4.1244702692E-01  3.6936219329E+00  2.3625519464E-03  2.3476029638E-03  2.8614965308E-01
  5.8550000000E+03  4.1275043385E-01  3.6918110700E+00  2.3680111651E-03  2.3530023685E-03  2.8637972147E-01
  5.8600000000E+03  4.1305380470E-01  3.6900026395E+00  2.3734782940E-03  2.3584094941E-03  2.8660969604E-01
  5.8650000000E+03  4.1335702349E-01  3.6881966361E+00  2.3789533380E-03  2.3638243411E-03  2.8683957696E-01
  5.8700000000E+03  4.1366016196E-01  3.6864128828E+00  2.3844363016E-03  2.3692469243E-03  2.8706936441E-01
  5.8750000000E+03  4.1396326436E-01  3.6846350657E+00  2.3899271895E-03  2.3746772425E-03  2.8729905858E-01
  5.8800000000E+03  4.1426633071E-01  3.6828596173E+00  2.3954260063E-03  2.3801152985E-03  2.8752865963E-01
  5.8850000000E+03  4.1456936106E-01  3.6810865324E+00  2.4009327566E-03  2.3855610965E-03  2.8775816776E-01
  5.8900000000E+03  4.1487235544E-01  3.6793158058E+00  2.4064474451E-03  2.3910146407E-03  2.8798758314E-01
  5.8950000000E+03  4.1517531388E-01  3.6775474325E+00  2.4119700764E-03  2.3964759352E-03  2.8821690595E-01
  5.9000000000E+03  4.1547823643E-01  3.6757814073E+00  2.4175006551E-03  2.4019449843E-03  2.8844613637E-01
  5.9050000000E+03  4.1578112311E-01  3.6740177250E+00  2.4230391859E-03  2.4074217922E-03  2.8867527458E-01
  5.9100000000E+03  4.1608397395E-01  3.6722563807E+00  2.4285856733E-03  2.4129063629E-03  2.8890432075E-01
  5.9150000000E+03  4.1638678900E-01  3.6704973692E+00  2.4341401221E-03  2.4183987007E-03  2.8913327506E-01
  5.9200000000E+03  4.1669021406E-01  3.6687406855E+00  2.4397025368E-03  2.4238988316E-03  2.8936213770E-01
  5.9250000000E+03  4.1699369523E-01  3.6669863245E+00  2.4452729220E-03  2.4294067412E-03  2.8959090884E-01
  5.9300000000E+03  4.1729714115E-01  3.6652342812E+00  2.4508512825E-03  2.4349224305E-03  2.8981958867E-01
  5.9350000000E+03  4.1760055186E-01  3.6634845507E+00  2.4564376227E-03  2.4404459038E-03  2.9004817735E-01
  5.9400000000E+03  4.1790392739E-01  3.6617371278E+00  2.4620319474E-03  2.4459771651E-03  2.9027667506E-01
  5.9450000000E+03  4.1820726779E-01  3.6599920076E+00  2.4676342611E-03  2.4515162187E-03  2.9050508200E-01
  5.9500000000E+03  4.1851057307E-01  3.6582491852E+00  2.4732445684E-03  2.4570630688E-03  2.9073339832E-01
  5.9550000000E+03  4.1881384327E-01  3.6565086556E+00  2.4788628741E-03  2.4626177194E-03  2.9096162422E-01
  5.9600000000E+03  4.1911707843E-01  3.6547704139E+00  2.4844891826E-03  2.4681801747E-03  2.9118975986E-01
  5.9650000000E+03  4.1942027859E-01  3.6530562044E+00  2.4901234986E-03  2.4737504489E-03  2.9141780543E-01
  5.9700000000E+03  4.1972344377E-01  3.6513451003E+00  2.4957658267E-03  2.4793285366E-03  2.9164576111E-01
  5.9750000000E+03  4.2004172505E-01  3.6496362293E+00  2.5014161715E-03  2.4849149719E-03  2.9187362706E-01
  5.9800000000E+03  4.2036112197E-01  3.6479295864E+00  2.5070745376E-03  2.4905092722E-03  2.9210140348E-01
  5.9850000000E+03  4.2068049450E-01  3.6462251669E+00  2.5127409297E-03  2.4961114020E-03  2.9232909053E-01
  5.9900000000E+03  4.2099984268E-01  3.6445229661E+00  2.5184153523E-03  2.5017213653E-03  2.9255668839E-01
  5.9950000000E+03  4.2131916652E-01  3.6428229793E+00  2.5240978101E-03  2.5073391663E-03  2.9278419725E-01
  6.0000000000E+03  4.2163846605E-01  3.6411252016E+00  2.5297883076E-03  2.5129648092E-03  2.9301161727E-01
  6.0050000000E+03  4.2195774129E-01  3.6394296285E+00  2.5355487900E-03  2.5186594163E-03  2.9323894864E-01
  6.0100000000E+03  4.2227699226E-01  3.6377362552E+00  2.5413175510E-03  2.5243620976E-03  2.9346619153E-01
  6.0150000000E+03  4.2259621898E-01  3.6360450770E+00  2.5470945957E-03  2.5300728575E-03  2.9369334612E-01
  6.0200000000E+03  4.2291542147E-01  3.6343560892E+00  2.5528799289E-03  2.5357917005E-03  2.9392041258E-01
  6.0250000000E+03  4.2323459977E-01  3.6326692873E+00  2.5586735555E-03  2.5415186312E-03  2.9414739109E-01
  6.0300000000E+03  4.2355405936E-01  3.6309846666E+00  2.5644754806E-03  2.5472536649E-03  2.9437428183E-01
  6.0350000000E+03  4.2387353667E-01  3.6293022224E+00  2.5702857089E-03  2.5529967967E-03  2.9460108498E-01
  6.0400000000E+03  4.2419299008E-01  3.6276219501E+00  2.5761042456E-03  2.5587480295E-03  2.9482780070E-01
  6.0450000000E+03  4.2451241960E-01  3.6259438452E+00  2.5819310955E-03  2.5645073679E-03  2.9505442919E-01
  6.0500000000E+03  4.2483182527E-01  3.6242679030E+00  2.5877662634E-03  2.5702748162E-03  2.9528097060E-01
  6.0550000000E+03  4.2515120710E-01  3.6225941190E+00  2.5936097545E-03  2.5760503789E-03  2.9550742513E-01
  6.0600000000E+03  4.2547056511E-01  3.6209393611E+00  2.5994615735E-03  2.5818340690E-03  2.9573379294E-01
  6.0650000000E+03  4.2578989933E-01  3.6192917165E+00  2.6053217255E-03  2.5876258851E-03  2.9596007421E-01
  6.0700000000E+03  4.2610920978E-01  3.6176461785E+00  2.6111902152E-03  2.5934258289E-03  2.9618626911E-01
  6.0750000000E+03  4.2642849647E-01  3.6160027427E+00  2.6170670478E-03  2.5992339051E-03  2.9641237783E-01
  6.0800000000E+03  4.2674775944E-01  3.6143614045E+00  2.6229522280E-03  2.6050501180E-03  2.9663840056E-01
  6.0850000000E+03  4.2706957702E-01  3.6127221597E+00  2.6288457608E-03  2.6108745685E-03  2.9686433772E-01
  6.0900000000E+03  4.2739232662E-01  3.6110850039E+00  2.6347476512E-03  2.6167072009E-03  2.9709018951E-01
  6.0950000000E+03  4.2771505496E-01  3.6094499326E+00  2.6406579040E-03  2.6225479843E-03  2.9731595611E-01
  6.1000000000E+03  4.2803776205E-01  3.6078169415E+00  2.6465765241E-03  2.6283969230E-03  2.9754163767E-01
  6.1050000000E+03  4.2836044792E-01  3.6061860263E+00  2.6525035165E-03  2.6342540215E-03  2.9776723436E-01
  6.1100000000E+03  4.2868311258E-01  3.6045571826E+00  2.6584388861E-03  2.6401192842E-03  2.9799274633E-01
  6.1150000000E+03  4.2900575606E-01  3.6029304062E+00  2.6643826379E-03  2.6459927156E-03  2.9821817374E-01
  6.1200000000E+03  4.2932837836E-01  3.6013056926E+00  2.6703347766E-03  2.6518743200E-03  2.9844351675E-01
  6.1250000000E+03  4.2965097952E-01  3.5996830376E+00  2.6762953072E-03  2.6577641020E-03  2.9866877553E-01
  6.1300000000E+03  4.2997355954E-01  3.5980624369E+00  2.6822642347E-03  2.6636620659E-03  2.9889395022E-01
  6.1350000000E+03  4.3029611845E-01  3.5964438862E+00  2.6882415640E-03  2.6695682162E-03  2.9911904100E-01
  6.1400000000E+03  4.3061856390E-01  3.5948273813E+00  2.6942272999E-03  2.6754825536E-03  2.9934404801E-01
  6.1450000000E+03  4.3094088650E-01  3.5932129180E+00  2.7002214474E-03  2.6814050824E-03  2.9956897143E-01
  6.1500000000E+03  4.3126318791E-01  3.5916004919E+00  2.7062240113E-03  2.6873358106E-03  2.9979381140E-01
  6.1550000000E+03  4.3158546815E-01  3.5899958590E+00  2.7122349966E-03  2.6932747462E-03  3.0001856809E-01
  6.1600000000E+03  4.3190772724E-01  3.5884086220E+00  2.7182544082E-03  2.6992218988E-03  3.0024324166E-01
  6.1650000000E+03  4.3222996519E-01  3.5868233737E+00  2.7242822509E-03  2.7051772644E-03  3.0046783226E-01
  6.1700000000E+03  4.3255218202E-01  3.5852401100E+00  2.7303185297E-03  2.7111408472E-03  3.0069234005E-01
  6.1750000000E+03  4.3287437776E-01  3.5836588269E+00  2.7363632496E-03  2.7171126519E-03  3.0091676520E-01
  6.1800000000E+03  4.3319655242E-01  3.5820795203E+00  2.7424164152E-03  2.7230926826E-03  3.0114110786E-01
  6.1850000000E+03  4.3351870602E-01  3.5805021860E+00  2.7484780317E-03  2.7290809439E-03  3.0136536819E-01
  6.1900000000E+03  4.3384083858E-01  3.5789268201E+00  2.7545481038E-03  2.7350774402E-03  3.0158954635E-01
  6.1950000000E+03  4.3416292901E-01  3.5773534184E+00  2.7606266365E-03  2.7410821749E-03  3.0181364249E-01
  6.2000000000E+03  4.3448484065E-01  3.5757819771E+00  2.7667136346E-03  2.7470951471E-03  3.0203765678E-01
  6.2050000000E+03  4.3480673117E-01  3.5742124919E+00  2.7728091031E-03  2.7531163674E-03  3.0226158937E-01
  6.2100000000E+03  4.3512860061E-01  3.5726449590E+00  2.7789130468E-03  2.7591458402E-03  3.0248544043E-01
  6.2150000000E+03  4.3545044897E-01  3.5710793744E+00  2.7850254706E-03  2.7651835699E-03  3.0270921010E-01
  6.2200000000E+03  4.3577227629E-01  3.5695157339E+00  2.7911463795E-03  2.7712295608E-03  3.0293289855E-01
  6.2250000000E+03  4.3609408257E-01  3.5679540338E+00  2.7972757783E-03  2.7772838175E-03  3.0315650594E-01
  6.2300000000E+03  4.3641586783E-01  3.5663942700E+00  2.8034136718E-03  2.7833463441E-03  3.0338003242E-01
  6.2350000000E+03  4.3673763209E-01  3.5648364385E+00  2.8095600651E-03  2.7894171452E-03  3.0360347815E-01
  6.2400000000E+03  4.3705937538E-01  3.5632805354E+00  2.8157149628E-03  2.7954962252E-03  3.0382684329E-01
  6.2450000000E+03  4.3738109770E-01  3.5617265569E+00  2.8218783701E-03  2.8015835883E-03  3.0405012800E-01
  6.2500000000E+03  4.3770279908E-01  3.5601744989E+00  2.8280502916E-03  2.8076792390E-03  3.0427333243E-01
  6.2550000000E+03  4.3802439907E-01  3.5586337465E+00  2.8342307324E-03  2.8137831842E-03  3.0449645674E-01
  6.2600000000E+03  4.3834593552E-01  3.5571059349E+00  2.8404196972E-03  2.8198954310E-03  3.0471950109E-01
  6.2650000000E+03  4.3866745099E-01  3.5555799983E+00  2.8466171910E-03  2.8260159785E-03  3.0494246564E-01
  6.2700000000E+03  4.3898894552E-01  3.5540559328E+00  2.8528232187E-03  2.8321448312E-03  3.0516535054E-01
  6.2750000000E+03  4.3931041910E-01  3.5525337347E+00  2.8590377850E-03  2.8382819935E-03  3.0538815595E-01
  6.2800000000E+03  4.3963187177E-01  3.5510134002E+00  2.8652608950E-03  2.8444274696E-03  3.0561088203E-01
  6.2850000000E+03  4.3995330354E-01  3.5494949256E+00  2.8714925534E-03  2.8505812640E-03  3.0583352893E-01
  6.2900000000E+03  4.4027471443E-01  3.5479783070E+00  2.8777327651E-03  2.8567433811E-03  3.0605609681E-01
  6.2950000000E+03  4.4059610446E-01  3.5464635408E+00  2.8839815351E-03  2.8629138251E-03  3.0627858583E-01
  6.3000000000E+03  4.4091747364E-01  3.5449506232E+00  2.8902388681E-03  2.8690926005E-03  3.0650099615E-01
  6.3050000000E+03  4.4123882199E-01  3.5434395504E+00  2.8965047691E-03  2.8752797115E-03  3.0672332792E-01
  6.3100000000E+03  4.4156011827E-01  3.5419303189E+00  2.9027792428E-03  2.8814751614E-03  3.0694558130E-01
  6.3150000000E+03  4.4188106134E-01  3.5404229248E+00  2.9090622943E-03  2.8876789414E-03  3.0716775644E-01
  6.3200000000E+03  4.4220198339E-01  3.5389173646E+00  2.9153539283E-03  2.8938910701E-03  3.0738985350E-01
  6.3250000000E+03  4.4252288444E-01  3.5374136344E+00  2.9216541497E-03  2.9001115519E-03  3.0761187265E-01
  6.3300000000E+03  4.4284376452E-01  3.5359117307E+00  2.9279629634E-03  2.9063403910E-03  3.0783381402E-01
  6.3350000000E+03  4.4316462363E-01  3.5344116498E+00  2.9342803742E-03  2.9125775918E-03  3.0805567779E-01
  6.3400000000E+03  4.4348546180E-01  3.5329133881E+00  2.9406063869E-03  2.9188231588E-03  3.0827746410E-01
  6.3450000000E+03  4.4380627905E-01  3.5314169418E+00  2.9469410066E-03  2.9250770961E-03  3.0849917312E-01
  6.3500000000E+03  4.4412707540E-01  3.5299223074E+00  2.9532842380E-03  2.9313394082E-03  3.0872080499E-01
