#[MATERIAL DEFINITION FOR MC-GPU: interaction mean free path and sampling data from PENELOPE 2018]
#[MATERIAL NAME]
# breast_adipose                                                
#[NOMINAL DENSITY (g/cm^3)]
#   0.95000000
#[NUMBER OF DATA VALUES]
#  23002
#[MEAN FREE PATHS (cm) (ie, average distance between interactions)]
#[Energy (eV)     | Rayleigh        | Compton         | Photoelectric   | TOTAL (+pair prod) (cm) | Rayleigh: max cumul prob F^2]
  5.0000000000E+03  2.5133261668E+00  8.0758673001E+00  4.2379928796E-02  4.1463185499E-02  3.4181031306E-01
  5.0050000000E+03  2.5162857856E+00  8.0720964983E+00  4.2509884329E-02  4.1588280665E-02  3.4206323533E-01
  5.0100000000E+03  2.5192459291E+00  8.0683312198E+00  4.2640107777E-02  4.1713622538E-02  3.4231593851E-01
  5.0150000000E+03  2.5222084113E+00  8.0645714508E+00  4.2770599424E-02  4.1839211827E-02  3.4256842328E-01
  5.0200000000E+03  2.5251725046E+00  8.0608171779E+00  4.2901359553E-02  4.1965048547E-02  3.4282069030E-01
  5.0250000000E+03  2.5281371252E+00  8.0570683876E+00  4.3032388447E-02  4.2091132611E-02  3.4307274025E-01
  5.0300000000E+03  2.5311022728E+00  8.0533250664E+00  4.3163686390E-02  4.2217464229E-02  3.4332457379E-01
  5.0350000000E+03  2.5340679469E+00  8.0495872008E+00  4.3295253666E-02  4.2344043611E-02  3.4357619159E-01
  5.0400000000E+03  2.5370341471E+00  8.0458547777E+00  4.3427090557E-02  4.2470870966E-02  3.4382759431E-01
  5.0450000000E+03  2.5400008729E+00  8.0421277835E+00  4.3559197348E-02  4.2597946503E-02  3.4407878260E-01
  5.0500000000E+03  2.5429681240E+00  8.0384062052E+00  4.3691574321E-02  4.2725270432E-02  3.4432975712E-01
  5.0550000000E+03  2.5459358999E+00  8.0346900294E+00  4.3824221760E-02  4.2852842961E-02  3.4458051854E-01
  5.0600000000E+03  2.5489044824E+00  8.0309792429E+00  4.3957139950E-02  4.2980664380E-02  3.4483106750E-01
  5.0650000000E+03  2.5518741137E+00  8.0272738327E+00  4.4090329172E-02  4.3108734967E-02  3.4508140465E-01
  5.0700000000E+03  2.5548442696E+00  8.0235737857E+00  4.4223789711E-02  4.3237054782E-02  3.4533153064E-01
  5.0750000000E+03  2.5578149497E+00  8.0198790888E+00  4.4357521851E-02  4.3365624035E-02  3.4558144612E-01
  5.0800000000E+03  2.5607861536E+00  8.0161897290E+00  4.4491525875E-02  4.3494442932E-02  3.4583115173E-01
  5.0850000000E+03  2.5637578808E+00  8.0125673934E+00  4.4625802066E-02  4.3623513510E-02  3.4608064812E-01
  5.0900000000E+03  2.5667301310E+00  8.0089562357E+00  4.4760350708E-02  4.3752834349E-02  3.4632993592E-01
  5.0950000000E+03  2.5697029036E+00  8.0053502485E+00  4.4895172085E-02  4.3882405480E-02  3.4657901577E-01
  5.1000000000E+03  2.5726761983E+00  8.0017494196E+00  4.5030266481E-02  4.4012227111E-02  3.4682788830E-01
  5.1050000000E+03  2.5756500146E+00  7.9981537365E+00  4.5165634178E-02  4.4142299449E-02  3.4707655416E-01
  5.1100000000E+03  2.5786237957E+00  7.9945631867E+00  4.5301275462E-02  4.4272622536E-02  3.4732501397E-01
  5.1150000000E+03  2.5815980912E+00  7.9909777581E+00  4.5437190614E-02  4.4403196742E-02  3.4757326836E-01
  5.1200000000E+03  2.5845729064E+00  7.9873974381E+00  4.5573379920E-02  4.4534022274E-02  3.4782131796E-01
  5.1250000000E+03  2.5875482408E+00  7.9838222147E+00  4.5709843663E-02  4.4665099340E-02  3.4806916339E-01
  5.1300000000E+03  2.5905240940E+00  7.9802520755E+00  4.5846582126E-02  4.4796428146E-02  3.4831680528E-01
  5.1350000000E+03  2.5935004656E+00  7.9766870085E+00  4.5983595593E-02  4.4928008898E-02  3.4856424425E-01
  5.1400000000E+03  2.5964773552E+00  7.9731270014E+00  4.6120884348E-02  4.5059841803E-02  3.4881148091E-01
  5.1450000000E+03  2.5994547624E+00  7.9695720422E+00  4.6258448675E-02  4.5191927065E-02  3.4905851588E-01
  5.1500000000E+03  2.6024326868E+00  7.9660221189E+00  4.6396288858E-02  4.5324264892E-02  3.4930534979E-01
  5.1550000000E+03  2.6054113593E+00  7.9624772193E+00  4.6534405180E-02  4.5456855560E-02  3.4955198324E-01
  5.1600000000E+03  2.6083907441E+00  7.9589373316E+00  4.6672797925E-02  4.5589699263E-02  3.4979841686E-01
  5.1650000000E+03  2.6113706454E+00  7.9554383584E+00  4.6811467377E-02  4.5722797334E-02  3.5004465146E-01
  5.1700000000E+03  2.6143510628E+00  7.9519732073E+00  4.6950413819E-02  4.5856149767E-02  3.5029068767E-01
  5.1750000000E+03  2.6173319958E+00  7.9485129129E+00  4.7089637537E-02  4.5989755816E-02  3.5053652612E-01
  5.1800000000E+03  2.6203134441E+00  7.9450574637E+00  4.7229138813E-02  4.6123615687E-02  3.5078216745E-01
  5.1850000000E+03  2.6232954073E+00  7.9416068484E+00  4.7368917931E-02  4.6257729585E-02  3.5102761227E-01
  5.1900000000E+03  2.6262778849E+00  7.9381610553E+00  4.7508975176E-02  4.6392097713E-02  3.5127286120E-01
  5.1950000000E+03  2.6292608765E+00  7.9347200733E+00  4.7649310830E-02  4.6526720276E-02  3.5151791487E-01
  5.2000000000E+03  2.6322444095E+00  7.9312838909E+00  4.7789925179E-02  4.6661597488E-02  3.5176277390E-01
  5.2050000000E+03  2.6352319057E+00  7.9278524969E+00  4.7930818506E-02  4.6796730632E-02  3.5200743888E-01
  5.2100000000E+03  2.6382199192E+00  7.9244258800E+00  4.8071991095E-02  4.6932118832E-02  3.5225191045E-01
  5.2150000000E+03  2.6412084497E+00  7.9210040289E+00  4.8213443230E-02  4.7067762292E-02  3.5249618921E-01
  5.2200000000E+03  2.6441974967E+00  7.9175869325E+00  4.8355175195E-02  4.7203661216E-02  3.5274027577E-01
  5.2250000000E+03  2.6471870599E+00  7.9141745796E+00  4.8497187274E-02  4.7339815807E-02  3.5298417074E-01
  5.2300000000E+03  2.6501771387E+00  7.9107669591E+00  4.8639479751E-02  4.7476226268E-02  3.5322787472E-01
  5.2350000000E+03  2.6531677329E+00  7.9073640600E+00  4.8782052910E-02  4.7612892802E-02  3.5347138832E-01
  5.2400000000E+03  2.6561588421E+00  7.9039658711E+00  4.8924907034E-02  4.7749815613E-02  3.5371471213E-01
  5.2450000000E+03  2.6591504657E+00  7.9005723816E+00  4.9068042409E-02  4.7886994902E-02  3.5395784675E-01
  5.2500000000E+03  2.6621503716E+00  7.8972414716E+00  4.9211459318E-02  4.8024435541E-02  3.5420079279E-01
  5.2550000000E+03  2.6651631661E+00  7.8939192946E+00  4.9355158046E-02  4.8162137301E-02  3.5444355083E-01
  5.2600000000E+03  2.6681765000E+00  7.8906016726E+00  4.9499138875E-02  4.8300096227E-02  3.5468612147E-01
  5.2650000000E+03  2.6711903730E+00  7.8872885951E+00  4.9643402091E-02  4.8438312521E-02  3.5492850531E-01
  5.2700000000E+03  2.6742047848E+00  7.8839800515E+00  4.9787947978E-02  4.8576786386E-02  3.5517070292E-01
  5.2750000000E+03  2.6772197348E+00  7.8806760313E+00  4.9932776819E-02  4.8715518023E-02  3.5541271490E-01
  5.2800000000E+03  2.6802352226E+00  7.8773765241E+00  5.0077888899E-02  4.8854507634E-02  3.5565454184E-01
  5.2850000000E+03  2.6832512480E+00  7.8740815195E+00  5.0223284502E-02  4.8993755421E-02  3.5589618431E-01
  5.2900000000E+03  2.6862678103E+00  7.8707910070E+00  5.0368963912E-02  4.9133261585E-02  3.5613764290E-01
  5.2950000000E+03  2.6892849093E+00  7.8675049763E+00  5.0514927414E-02  4.9273026327E-02  3.5637891819E-01
  5.3000000000E+03  2.6923021232E+00  7.8642234171E+00  5.0661175291E-02  4.9413049706E-02  3.5662001075E-01
  5.3050000000E+03  2.6953196684E+00  7.8609463190E+00  5.0807707828E-02  4.9553331996E-02  3.5686092117E-01
  5.3100000000E+03  2.6983377482E+00  7.8576736718E+00  5.0954525309E-02  4.9693873464E-02  3.5710165001E-01
  5.3150000000E+03  2.7013563622E+00  7.8544054653E+00  5.1101628018E-02  4.9834674312E-02  3.5734219785E-01
  5.3200000000E+03  2.7043755100E+00  7.8511416893E+00  5.1249016240E-02  4.9975734739E-02  3.5758256527E-01
  5.3250000000E+03  2.7073951911E+00  7.8478823336E+00  5.1396690258E-02  5.0117054947E-02  3.5782275282E-01
  5.3300000000E+03  2.7104154052E+00  7.8446300243E+00  5.1544650358E-02  5.0258635242E-02  3.5806276108E-01
  5.3350000000E+03  2.7134361518E+00  7.8414388618E+00  5.1692896823E-02  5.0400478063E-02  3.5830259060E-01
  5.3400000000E+03  2.7164574305E+00  7.8382519850E+00  5.1841429938E-02  5.0542581290E-02  3.5854224197E-01
  5.3450000000E+03  2.7194792410E+00  7.8350693842E+00  5.1990249987E-02  5.0684945122E-02  3.5878171573E-01
  5.3500000000E+03  2.7225012475E+00  7.8318910496E+00  5.2139357254E-02  5.0827569643E-02  3.5902101245E-01
  5.3550000000E+03  2.7255237351E+00  7.8287169715E+00  5.2288752025E-02  5.0970455151E-02  3.5926013268E-01
  5.3600000000E+03  2.7285467529E+00  7.8255471402E+00  5.2438434582E-02  5.1113601860E-02  3.5949907698E-01
  5.3650000000E+03  2.7315703002E+00  7.8223815462E+00  5.2588405211E-02  5.1257009971E-02  3.5973784591E-01
  5.3700000000E+03  2.7345943768E+00  7.8192201798E+00  5.2738664196E-02  5.1400679681E-02  3.5997644003E-01
  5.3750000000E+03  2.7376189822E+00  7.8160630314E+00  5.2889211821E-02  5.1544611189E-02  3.6021485987E-01
  5.3800000000E+03  2.7406441160E+00  7.8129100915E+00  5.3040048371E-02  5.1688804693E-02  3.6045310600E-01
  5.3850000000E+03  2.7436697779E+00  7.8097613506E+00  5.3191174130E-02  5.1833260391E-02  3.6069117895E-01
  5.3900000000E+03  2.7466959674E+00  7.8066167992E+00  5.3342589383E-02  5.1977978482E-02  3.6092907928E-01
  5.3950000000E+03  2.7497226841E+00  7.8034764278E+00  5.3494294414E-02  5.2122959162E-02  3.6116680754E-01
  5.4000000000E+03  2.7527515012E+00  7.8003402271E+00  5.3646289508E-02  5.2268203196E-02  3.6140436425E-01
  5.4050000000E+03  2.7557808821E+00  7.7972081876E+00  5.3798574949E-02  5.2413710232E-02  3.6164174998E-01
  5.4100000000E+03  2.7588107911E+00  7.7940802999E+00  5.3951151021E-02  5.2559480454E-02  3.6187896525E-01
  5.4150000000E+03  2.7618412278E+00  7.7909565548E+00  5.4104018010E-02  5.2705514059E-02  3.6211601060E-01
  5.4200000000E+03  2.7648721918E+00  7.7878871724E+00  5.4257176199E-02  5.2851813557E-02  3.6235288658E-01
  5.4250000000E+03  2.7679036827E+00  7.7848284187E+00  5.4410625874E-02  5.2998377161E-02  3.6258959372E-01
  5.4300000000E+03  2.7709357002E+00  7.7817736826E+00  5.4564367319E-02  5.3145204768E-02  3.6282613254E-01
  5.4350000000E+03  2.7739682437E+00  7.7787229549E+00  5.4718400818E-02  5.3292296571E-02  3.6306250359E-01
  5.4400000000E+03  2.7770013130E+00  7.7756762269E+00  5.4872726656E-02  5.3439652769E-02  3.6329870739E-01
  5.4450000000E+03  2.7800349076E+00  7.7726334896E+00  5.5027345118E-02  5.3587273556E-02  3.6353474447E-01
  5.4500000000E+03  2.7831266093E+00  7.7695947341E+00  5.5182256488E-02  5.3735180595E-02  3.6377061537E-01
  5.4550000000E+03  2.7862192573E+00  7.7665599516E+00  5.5337461051E-02  5.3883352915E-02  3.6400632059E-01
  5.4600000000E+03  2.7893125037E+00  7.7635291332E+00  5.5492959091E-02  5.4031790582E-02  3.6424186068E-01
  5.4650000000E+03  2.7924063482E+00  7.7605022701E+00  5.5648750894E-02  5.4180493793E-02  3.6447723615E-01
  5.4700000000E+03  2.7955007903E+00  7.7574793535E+00  5.5804836744E-02  5.4329462744E-02  3.6471244753E-01
  5.4750000000E+03  2.7985958296E+00  7.7544603748E+00  5.5961216925E-02  5.4478697630E-02  3.6494749533E-01
  5.4800000000E+03  2.8016914656E+00  7.7514453251E+00  5.6117891722E-02  5.4628198647E-02  3.6518238007E-01
  5.4850000000E+03  2.8047876980E+00  7.7484341959E+00  5.6274861421E-02  5.4777965989E-02  3.6541710227E-01
  5.4900000000E+03  2.8078845262E+00  7.7454269784E+00  5.6432126305E-02  5.4927999852E-02  3.6565166245E-01
  5.4950000000E+03  2.8109819499E+00  7.7424236640E+00  5.6589686660E-02  5.5078300430E-02  3.6588606111E-01
  5.5000000000E+03  2.8140822850E+00  7.7394242440E+00  5.6747542770E-02  5.5228868810E-02  3.6612029878E-01
  5.5050000000E+03  2.8171834247E+00  7.7364530219E+00  5.6906459622E-02  5.5380429866E-02  3.6635437596E-01
  5.5100000000E+03  2.8202851618E+00  7.7335156614E+00  5.7065676384E-02  5.5532263023E-02  3.6658829316E-01
  5.5150000000E+03  2.8233874959E+00  7.7305820788E+00  5.7225193348E-02  5.5684366949E-02  3.6682205089E-01
  5.5200000000E+03  2.8264904267E+00  7.7276522660E+00  5.7385010806E-02  5.5836741843E-02  3.6705564980E-01
  5.5250000000E+03  2.8295939536E+00  7.7247262147E+00  5.7545129050E-02  5.5989387905E-02  3.6728909044E-01
  5.5300000000E+03  2.8326980762E+00  7.7218039166E+00  5.7705548374E-02  5.6142305334E-02  3.6752237336E-01
  5.5350000000E+03  2.8358027942E+00  7.7188853635E+00  5.7866269068E-02  5.6295494329E-02  3.6775549906E-01
  5.5400000000E+03  2.8389081071E+00  7.7159705474E+00  5.8027291426E-02  5.6448955090E-02  3.6798846809E-01
  5.5450000000E+03  2.8420140144E+00  7.7130594599E+00  5.8188615741E-02  5.6602687815E-02  3.6822128096E-01
  5.5500000000E+03  2.8451208321E+00  7.7101520931E+00  5.8350242304E-02  5.6756692828E-02  3.6845393820E-01
  5.5550000000E+03  2.8482283506E+00  7.7072484387E+00  5.8512171408E-02  5.6910970246E-02  3.6868644032E-01
  5.5600000000E+03  2.8513364627E+00  7.7043484888E+00  5.8674403346E-02  5.7065520224E-02  3.6891878786E-01
  5.5650000000E+03  2.8544451682E+00  7.7014522352E+00  5.8836938410E-02  5.7220342961E-02  3.6915098132E-01
  5.5700000000E+03  2.8575544666E+00  7.6985596700E+00  5.8999776892E-02  5.7375438653E-02  3.6938302123E-01
  5.5750000000E+03  2.8606643575E+00  7.6956707851E+00  5.9162919086E-02  5.7530807500E-02  3.6961490809E-01
  5.5800000000E+03  2.8637748405E+00  7.6927855726E+00  5.9326365284E-02  5.7686449697E-02  3.6984664243E-01
  5.5850000000E+03  2.8668859151E+00  7.6899040245E+00  5.9490115778E-02  5.7842365443E-02  3.7007822475E-01
  5.5900000000E+03  2.8699975809E+00  7.6870261328E+00  5.9654170861E-02  5.7998554934E-02  3.7030965557E-01
  5.5950000000E+03  2.8731098376E+00  7.6841897839E+00  5.9818530825E-02  5.8155020537E-02  3.7054093540E-01
  5.6000000000E+03  2.8762225769E+00  7.6813710306E+00  5.9983195965E-02  5.8311761065E-02  3.7077206473E-01
  5.6050000000E+03  2.8793357910E+00  7.6785558256E+00  6.0148166570E-02  5.8468775912E-02  3.7100304409E-01
  5.6100000000E+03  2.8824495945E+00  7.6757441611E+00  6.0313442936E-02  5.8626065322E-02  3.7123387397E-01
  5.6150000000E+03  2.8855639869E+00  7.6729360296E+00  6.0479025354E-02  5.8783629490E-02  3.7146455488E-01
  5.6200000000E+03  2.8886789677E+00  7.6701314236E+00  6.0644914117E-02  5.8941468613E-02  3.7169508732E-01
  5.6250000000E+03  2.8917945365E+00  7.6673303354E+00  6.0811109518E-02  5.9099582885E-02  3.7192547179E-01
  5.6300000000E+03  2.8949106930E+00  7.6645327575E+00  6.0977611849E-02  5.9257972504E-02  3.7215570879E-01
  5.6350000000E+03  2.8980274367E+00  7.6617386825E+00  6.1144421404E-02  5.9416637664E-02  3.7238579882E-01
  5.6400000000E+03  2.9011447673E+00  7.6589481028E+00  6.1311538475E-02  5.9575578560E-02  3.7261574238E-01
  5.6450000000E+03  2.9042626842E+00  7.6561610110E+00  6.1478963354E-02  5.9734795387E-02  3.7284553996E-01
  5.6500000000E+03  2.9073814658E+00  7.6533773995E+00  6.1646696336E-02  5.9894288458E-02  3.7307519205E-01
  5.6550000000E+03  2.9105027677E+00  7.6505972611E+00  6.1814737712E-02  6.0054058674E-02  3.7330469915E-01
  5.6600000000E+03  2.9136246575E+00  7.6478205883E+00  6.1983087775E-02  6.0214105413E-02  3.7353406174E-01
  5.6650000000E+03  2.9167471349E+00  7.6450473737E+00  6.2151746819E-02  6.0374428867E-02  3.7376328032E-01
  5.6700000000E+03  2.9198701994E+00  7.6422776100E+00  6.2320715136E-02  6.0535029232E-02  3.7399235538E-01
  5.6750000000E+03  2.9229938507E+00  7.6395112898E+00  6.2489993019E-02  6.0695906701E-02  3.7422128741E-01
  5.6800000000E+03  2.9261180883E+00  7.6367484059E+00  6.2659580761E-02  6.0857061467E-02  3.7445007688E-01
  5.6850000000E+03  2.9292429118E+00  7.6340250024E+00  6.2829478655E-02  6.1018496027E-02  3.7467872429E-01
  5.6900000000E+03  2.9323683209E+00  7.6313184769E+00  6.2999686993E-02  6.1180209164E-02  3.7490723011E-01
  5.6950000000E+03  2.9354943150E+00  7.6286152870E+00  6.3170206070E-02  6.1342200210E-02  3.7513559483E-01
  5.7000000000E+03  2.9386208939E+00  7.6259154256E+00  6.3341036178E-02  6.1504469360E-02  3.7536381893E-01
  5.7050000000E+03  2.9417476642E+00  7.6232188858E+00  6.3512177610E-02  6.1667016633E-02  3.7559190290E-01
  5.7100000000E+03  2.9448748259E+00  7.6205256605E+00  6.3683630658E-02  6.1829842309E-02  3.7581984719E-01
  5.7150000000E+03  2.9480025704E+00  7.6178357427E+00  6.3855395617E-02  6.1992946663E-02  3.7604765231E-01
  5.7200000000E+03  2.9511308973E+00  7.6151491255E+00  6.4027472778E-02  6.2156329888E-02  3.7627531871E-01
  5.7250000000E+03  2.9542598062E+00  7.6124658021E+00  6.4199862436E-02  6.2319992176E-02  3.7650284688E-01
  5.7300000000E+03  2.9573892966E+00  7.6097857653E+00  6.4372564883E-02  6.2483933718E-02  3.7673023728E-01
  5.7350000000E+03  2.9605193682E+00  7.6071090085E+00  6.4545580412E-02  6.2648154707E-02  3.7695749039E-01
  5.7400000000E+03  2.9636500206E+00  7.6044355247E+00  6.4718909317E-02  6.2812655332E-02  3.7718460669E-01
  5.7450000000E+03  2.9667812534E+00  7.6017653070E+00  6.4892551891E-02  6.2977435786E-02  3.7741158663E-01
  5.7500000000E+03  2.9699130661E+00  7.5990983487E+00  6.5066508426E-02  6.3142496258E-02  3.7763843069E-01
  5.7550000000E+03  2.9730455735E+00  7.5964346429E+00  6.5240779216E-02  6.3307836993E-02  3.7786513933E-01
  5.7600000000E+03  2.9761795046E+00  7.5937741828E+00  6.5415364555E-02  6.3473458512E-02  3.7809171303E-01
  5.7650000000E+03  2.9793140157E+00  7.5911169617E+00  6.5590264735E-02  6.3639360625E-02  3.7831815224E-01
  5.7700000000E+03  2.9824491064E+00  7.5884629729E+00  6.5765480049E-02  6.3805543522E-02  3.7854445742E-01
  5.7750000000E+03  2.9855847762E+00  7.5858327839E+00  6.5941010792E-02  6.3972008855E-02  3.7877062905E-01
  5.7800000000E+03  2.9887210249E+00  7.5832325113E+00  6.6116857255E-02  6.4138757279E-02  3.7899666759E-01
  5.7850000000E+03  2.9918578519E+00  7.5806353772E+00  6.6293019733E-02  6.4305787090E-02  3.7922257348E-01
  5.7900000000E+03  2.9949952569E+00  7.5780413752E+00  6.6469498519E-02  6.4473098477E-02  3.7944834720E-01
  5.7950000000E+03  2.9981332396E+00  7.5754504988E+00  6.6646293906E-02  6.4640691631E-02  3.7967398919E-01
  5.8000000000E+03  3.0012717995E+00  7.5728627415E+00  6.6823406188E-02  6.4808566739E-02  3.7989949992E-01
  5.8050000000E+03  3.0044109362E+00  7.5702780969E+00  6.7000835657E-02  6.4976723992E-02  3.8012487984E-01
  5.8100000000E+03  3.0075507520E+00  7.5676965586E+00  6.7178582607E-02  6.5145163624E-02  3.8035012941E-01
  5.8150000000E+03  3.0106912591E+00  7.5651181201E+00  6.7356647332E-02  6.5313885832E-02  3.8057524907E-01
  5.8200000000E+03  3.0138323421E+00  7.5625427752E+00  6.7535030125E-02  6.5482890749E-02  3.8080023929E-01
  5.8250000000E+03  3.0169740006E+00  7.5599705173E+00  6.7713731279E-02  6.5652178563E-02  3.8102510051E-01
  5.8300000000E+03  3.0201162342E+00  7.5574013403E+00  6.7892751088E-02  6.5821749463E-02  3.8124983318E-01
  5.8350000000E+03  3.0232590427E+00  7.5548352377E+00  6.8072089846E-02  6.5991603635E-02  3.8147443775E-01
  5.8400000000E+03  3.0264024254E+00  7.5522722032E+00  6.8251747845E-02  6.6161741267E-02  3.8169891467E-01
  5.8450000000E+03  3.0295463822E+00  7.5497122306E+00  6.8431725379E-02  6.6332162547E-02  3.8192326438E-01
  5.8500000000E+03  3.0326909126E+00  7.5471553136E+00  6.8612022742E-02  6.6502867660E-02  3.8214748734E-01
  5.8550000000E+03  3.0358360162E+00  7.5446014459E+00  6.8792640228E-02  6.6673856793E-02  3.8237158398E-01
  5.8600000000E+03  3.0389816926E+00  7.5420506213E+00  6.8973578129E-02  6.6845130134E-02  3.8259555475E-01
  5.8650000000E+03  3.0421276196E+00  7.5395028336E+00  6.9154836739E-02  6.7016687711E-02  3.8281940009E-01
  5.8700000000E+03  3.0452739955E+00  7.5369963377E+00  6.9336416353E-02  6.7188532848E-02  3.8304312045E-01
  5.8750000000E+03  3.0484209426E+00  7.5344996706E+00  6.9518317263E-02  6.7360663327E-02  3.8326671626E-01
  5.8800000000E+03  3.0515684604E+00  7.5320059534E+00  6.9700539763E-02  6.7533078791E-02  3.8349018796E-01
  5.8850000000E+03  3.0547165486E+00  7.5295151801E+00  6.9883084147E-02  6.7705779426E-02  3.8371353600E-01
  5.8900000000E+03  3.0578652068E+00  7.5270273447E+00  7.0065950709E-02  6.7878765418E-02  3.8393676080E-01
  5.8950000000E+03  3.0610144346E+00  7.5245424414E+00  7.0249139741E-02  6.8052036951E-02  3.8415986281E-01
  5.9000000000E+03  3.0641642316E+00  7.5220604640E+00  7.0432651539E-02  6.8225594210E-02  3.8438284246E-01
  5.9050000000E+03  3.0673145975E+00  7.5195814068E+00  7.0616486394E-02  6.8399437380E-02  3.8460570019E-01
  5.9100000000E+03  3.0704655318E+00  7.5171052638E+00  7.0800644602E-02  6.8573566646E-02  3.8482843642E-01
  5.9150000000E+03  3.0736170342E+00  7.5146320292E+00  7.0985126456E-02  6.8747982191E-02  3.8505105160E-01
  5.9200000000E+03  3.0767700869E+00  7.5121616970E+00  7.1169932250E-02  6.8922684694E-02  3.8527354615E-01
  5.9250000000E+03  3.0799238473E+00  7.5096942614E+00  7.1355062276E-02  6.9097673918E-02  3.8549592051E-01
  5.9300000000E+03  3.0830781759E+00  7.5072297166E+00  7.1540516830E-02  6.9272949977E-02  3.8571817509E-01
  5.9350000000E+03  3.0862330725E+00  7.5047680567E+00  7.1726296205E-02  6.9448513055E-02  3.8594031034E-01
  5.9400000000E+03  3.0893885367E+00  7.5023092760E+00  7.1912400695E-02  6.9624363336E-02  3.8616232668E-01
  5.9450000000E+03  3.0925445680E+00  7.4998533686E+00  7.2098830594E-02  6.9800501001E-02  3.8638422453E-01
  5.9500000000E+03  3.0957011662E+00  7.4974003289E+00  7.2285586194E-02  6.9976926234E-02  3.8660600433E-01
  5.9550000000E+03  3.0988583308E+00  7.4949501509E+00  7.2472667792E-02  7.0153639218E-02  3.8682766649E-01
  5.9600000000E+03  3.1020160614E+00  7.4925028291E+00  7.2660075679E-02  7.0330640134E-02  3.8704921145E-01
  5.9650000000E+03  3.1051743577E+00  7.4900997321E+00  7.2847810150E-02  7.0507932831E-02  3.8727063961E-01
  5.9700000000E+03  3.1083332193E+00  7.4877010664E+00  7.3035871499E-02  7.0685514009E-02  3.8749195142E-01
  5.9750000000E+03  3.1114925062E+00  7.4853051760E+00  7.3224260021E-02  7.0863383630E-02  3.8771314728E-01
  5.9800000000E+03  3.1146523470E+00  7.4829120553E+00  7.3412976008E-02  7.1041541943E-02  3.8793422762E-01
  5.9850000000E+03  3.1178127517E+00  7.4805216989E+00  7.3602019755E-02  7.1219989136E-02  3.8815519286E-01
  5.9900000000E+03  3.1209737202E+00  7.4781341012E+00  7.3791391555E-02  7.1398725388E-02  3.8837604341E-01
  5.9950000000E+03  3.1241352518E+00  7.4757492568E+00  7.3981091704E-02  7.1577750881E-02  3.8859677969E-01
  6.0000000000E+03  3.1272973464E+00  7.4733671602E+00  7.4171120494E-02  7.1757065797E-02  3.8881740213E-01
  6.0050000000E+03  3.1304600036E+00  7.4709878060E+00  7.4362709391E-02  7.1937822501E-02  3.8903791113E-01
  6.0100000000E+03  3.1336232228E+00  7.4686111886E+00  7.4554632843E-02  7.2118873678E-02  3.8925830712E-01
  6.0150000000E+03  3.1367870039E+00  7.4662373027E+00  7.4746891155E-02  7.2300219515E-02  3.8947859049E-01
  6.0200000000E+03  3.1399513465E+00  7.4638661429E+00  7.4939484632E-02  7.2481860199E-02  3.8969876168E-01
  6.0250000000E+03  3.1431162500E+00  7.4614977038E+00  7.5132413578E-02  7.2663795918E-02  3.8991882109E-01
  6.0300000000E+03  3.1462876233E+00  7.4591319800E+00  7.5325678297E-02  7.2846030025E-02  3.9013876914E-01
  6.0350000000E+03  3.1494603702E+00  7.4567689662E+00  7.5519279094E-02  7.3028559996E-02  3.9035860622E-01
  6.0400000000E+03  3.1526336850E+00  7.4544086570E+00  7.5713216274E-02  7.3211385588E-02  3.9057833276E-01
  6.0450000000E+03  3.1558075674E+00  7.4520510470E+00  7.5907490141E-02  7.3394506985E-02  3.9079794917E-01
  6.0500000000E+03  3.1589820169E+00  7.4496961310E+00  7.6102101000E-02  7.3577924374E-02  3.9101745585E-01
  6.0550000000E+03  3.1621570333E+00  7.4473439037E+00  7.6297049155E-02  7.3761637942E-02  3.9123685320E-01
  6.0600000000E+03  3.1653326161E+00  7.4450260079E+00  7.6492334911E-02  7.3945650994E-02  3.9145614164E-01
  6.0650000000E+03  3.1685087650E+00  7.4427201123E+00  7.6687958573E-02  7.4129961555E-02  3.9167532158E-01
  6.0700000000E+03  3.1716854796E+00  7.4404168303E+00  7.6883920445E-02  7.4314568890E-02  3.9189439341E-01
  6.0750000000E+03  3.1748627596E+00  7.4381161567E+00  7.7080220832E-02  7.4499473183E-02  3.9211335754E-01
  6.0800000000E+03  3.1780406045E+00  7.4358180863E+00  7.7276860039E-02  7.4684674619E-02  3.9233221438E-01
  6.0850000000E+03  3.1812520286E+00  7.4335226142E+00  7.7473838371E-02  7.4870191670E-02  3.9255096433E-01
  6.0900000000E+03  3.1844762745E+00  7.4312297352E+00  7.7671156132E-02  7.5056013150E-02  3.9276960778E-01
  6.0950000000E+03  3.1877011380E+00  7.4289394443E+00  7.7868813627E-02  7.5242132505E-02  3.9298814515E-01
  6.1000000000E+03  3.1909266189E+00  7.4266517365E+00  7.8066811162E-02  7.5428549919E-02  3.9320657683E-01
  6.1050000000E+03  3.1941527167E+00  7.4243666067E+00  7.8265149040E-02  7.5615265577E-02  3.9342490322E-01
  6.1100000000E+03  3.1973794311E+00  7.4220840499E+00  7.8463827567E-02  7.5802279662E-02  3.9364312473E-01
  6.1150000000E+03  3.2006067617E+00  7.4198040611E+00  7.8662847047E-02  7.5989592360E-02  3.9386124174E-01
  6.1200000000E+03  3.2038347080E+00  7.4175266354E+00  7.8862207786E-02  7.6177203853E-02  3.9407925466E-01
  6.1250000000E+03  3.2070632697E+00  7.4152517677E+00  7.9061910089E-02  7.6365114325E-02  3.9429716388E-01
  6.1300000000E+03  3.2102924465E+00  7.4129794531E+00  7.9261954260E-02  7.6553323959E-02  3.9451496981E-01
  6.1350000000E+03  3.2135222378E+00  7.4107096867E+00  7.9462340604E-02  7.6741832938E-02  3.9473267282E-01
  6.1400000000E+03  3.2167526673E+00  7.4084424635E+00  7.9663069427E-02  7.6930641458E-02  3.9495027333E-01
  6.1450000000E+03  3.2199837370E+00  7.4061777785E+00  7.9864141033E-02  7.7119749705E-02  3.9516777172E-01
  6.1500000000E+03  3.2232154202E+00  7.4039156270E+00  8.0065555727E-02  7.7309157844E-02  3.9538516839E-01
  6.1550000000E+03  3.2264477166E+00  7.4016666573E+00  8.0267313815E-02  7.7498867226E-02  3.9560246373E-01
  6.1600000000E+03  3.2296806257E+00  7.3994486397E+00  8.0469415602E-02  7.7688880011E-02  3.9581965812E-01
  6.1650000000E+03  3.2329141473E+00  7.3972330855E+00  8.0671861392E-02  7.7879193277E-02  3.9603675198E-01
  6.1700000000E+03  3.2361482808E+00  7.3950199901E+00  8.0874651491E-02  7.8069807203E-02  3.9625374583E-01
  6.1750000000E+03  3.2393830260E+00  7.3928093486E+00  8.1077786204E-02  7.8260721973E-02  3.9647064013E-01
  6.1800000000E+03  3.2426183824E+00  7.3906011565E+00  8.1281265836E-02  7.8451937766E-02  3.9668743526E-01
  6.1850000000E+03  3.2458543497E+00  7.3883954090E+00  8.1485090693E-02  7.8643454765E-02  3.9690413157E-01
  6.1900000000E+03  3.2490909275E+00  7.3861921015E+00  8.1689261079E-02  7.8835273148E-02  3.9712072945E-01
  6.1950000000E+03  3.2523281083E+00  7.3839912292E+00  8.1893777300E-02  7.9027393094E-02  3.9733722924E-01
  6.2000000000E+03  3.2555658458E+00  7.3817927875E+00  8.2098639661E-02  7.9219814754E-02  3.9755363131E-01
  6.2050000000E+03  3.2588041926E+00  7.3795967718E+00  8.2303848467E-02  7.9412538340E-02  3.9776993603E-01
  6.2100000000E+03  3.2620431484E+00  7.3774031775E+00  8.2509404024E-02  7.9605564032E-02  3.9798614375E-01
  6.2150000000E+03  3.2652827126E+00  7.3752119998E+00  8.2715306637E-02  7.9798892008E-02  3.9820225485E-01
  6.2200000000E+03  3.2685228851E+00  7.3730232343E+00  8.2921556611E-02  7.9992522449E-02  3.9841826967E-01
  6.2250000000E+03  3.2717636653E+00  7.3708368764E+00  8.3128154252E-02  8.0186455534E-02  3.9863418859E-01
  6.2300000000E+03  3.2750050529E+00  7.3686529214E+00  8.3335099865E-02  8.0380691440E-02  3.9885001196E-01
  6.2350000000E+03  3.2782470476E+00  7.3664713648E+00  8.3542393755E-02  8.0575230348E-02  3.9906574014E-01
  6.2400000000E+03  3.2814896489E+00  7.3642922020E+00  8.3750036229E-02  8.0770072434E-02  3.9928137349E-01
  6.2450000000E+03  3.2847328565E+00  7.3621154285E+00  8.3958027590E-02  8.0965217878E-02  3.9949691236E-01
  6.2500000000E+03  3.2879766700E+00  7.3599410398E+00  8.4166368146E-02  8.1160666856E-02  3.9971235712E-01
  6.2550000000E+03  3.2912213230E+00  7.3577861448E+00  8.4375058201E-02  8.1356421782E-02  3.9992770812E-01
  6.2600000000E+03  3.2944667052E+00  7.3556537342E+00  8.4584098060E-02  8.1552483170E-02  4.0014296571E-01
  6.2650000000E+03  3.2977126926E+00  7.3535236434E+00  8.4793488030E-02  8.1748848669E-02  4.0035813025E-01
  6.2700000000E+03  3.3009592849E+00  7.3513958679E+00  8.5003228416E-02  8.1945518457E-02  4.0057320210E-01
  6.2750000000E+03  3.3042064816E+00  7.3492704036E+00  8.5213319524E-02  8.2142492710E-02  4.0078818160E-01
  6.2800000000E+03  3.3074542825E+00  7.3471472459E+00  8.5423761658E-02  8.2339771607E-02  4.0100306912E-01
  6.2850000000E+03  3.3107026871E+00  7.3450263906E+00  8.5634555125E-02  8.2537355322E-02  4.0121786500E-01
  6.2900000000E+03  3.3139516951E+00  7.3429078334E+00  8.5845700231E-02  8.2735244032E-02  4.0143256959E-01
  6.2950000000E+03  3.3172013061E+00  7.3407915699E+00  8.6057197281E-02  8.2933437913E-02  4.0164718325E-01
  6.3000000000E+03  3.3204515198E+00  7.3386775959E+00  8.6269046580E-02  8.3131937141E-02  4.0186170633E-01
  6.3050000000E+03  3.3237023357E+00  7.3365659069E+00  8.6481248435E-02  8.3330741891E-02  4.0207613918E-01
  6.3100000000E+03  3.3269536260E+00  7.3344564989E+00  8.6693803151E-02  8.3529852257E-02  4.0229048214E-01
  6.3150000000E+03  3.3302041611E+00  7.3323493674E+00  8.6906711034E-02  8.3729267639E-02  4.0250473557E-01
  6.3200000000E+03  3.3334552958E+00  7.3302445083E+00  8.7119972389E-02  8.3928989061E-02  4.0271889981E-01
  6.3250000000E+03  3.3367070295E+00  7.3281419173E+00  8.7333587523E-02  8.4129016698E-02  4.0293297521E-01
  6.3300000000E+03  3.3399593619E+00  7.3260415901E+00  8.7547556742E-02  8.4329350724E-02  4.0314696212E-01
  6.3350000000E+03  3.3432122928E+00  7.3239435225E+00  8.7761880350E-02  8.4529991314E-02  4.0336086088E-01
  6.3400000000E+03  3.3464658216E+00  7.3218477104E+00  8.7976558655E-02  8.4730938641E-02  4.0357467184E-01
  6.3450000000E+03  3.3497199480E+00  7.3197541495E+00  8.8191591961E-02  8.4932192879E-02  4.0378839535E-01
  6.3500000000E+03  3.3529746718E+00  7.3176628357E+00  8.8406980575E-02  8.5133754201E-02  4.0400203174E-01
