#[MATERIAL DEFINITION FOR MC-GPU: generated via XrayLib]
#[MATERIAL NAME]
# ALUMINUM (13)
#[NOMINAL DENSITY (g/cm^3)]
#   2.69890000
#[NUMBER OF DATA VALUES]
#  23001
#[MEAN FREE PATHS (cm) (ie, average distance between interactions)]
#[Energy (eV)     | Rayleigh        | Compton         | Photoelectric   | TOTAL (+pair prod) (cm) | Rayleigh: max cumul prob F^2]
  5.00000E+03  3.3214989012E-01  5.4589884170E+00  1.9276469013E-03  1.9158516550E-03  7.4556582840E-01
  5.00500E+03  3.3239422448E-01  5.4552004731E+00  1.9331127023E-03  1.9212583761E-03  7.4556582840E-01
  5.01000E+03  3.3263871675E-01  5.4514191098E+00  1.9385889464E-03  1.9266753050E-03  7.4556582840E-01
  5.01500E+03  3.3288336717E-01  5.4476443116E+00  1.9440756443E-03  1.9321024520E-03  7.4556582840E-01
  5.02000E+03  3.3312817598E-01  5.4438760632E+00  1.9495728070E-03  1.9375398272E-03  7.4556582840E-01
  5.02500E+03  3.3337314343E-01  5.4401143490E+00  1.9550804451E-03  1.9429874406E-03  7.4556582840E-01
  5.03000E+03  3.3361826978E-01  5.4363591538E+00  1.9605985697E-03  1.9484453024E-03  7.4556582840E-01
  5.03500E+03  3.3386355526E-01  5.4326104623E+00  1.9661271913E-03  1.9539134228E-03  7.4556582840E-01
  5.04000E+03  3.3410900014E-01  5.4288682592E+00  1.9716663210E-03  1.9593918118E-03  7.4556582840E-01
  5.04500E+03  3.3435460464E-01  5.4251325292E+00  1.9772159694E-03  1.9648804796E-03  7.4556582840E-01
  5.05000E+03  3.3460036903E-01  5.4214032573E+00  1.9827761475E-03  1.9703794363E-03  7.4556582840E-01
  5.05500E+03  3.3484629353E-01  5.4176804282E+00  1.9883468660E-03  1.9758886921E-03  7.4556582840E-01
  5.06000E+03  3.3509237840E-01  5.4139640269E+00  1.9939281359E-03  1.9814082571E-03  7.4556582840E-01
  5.06500E+03  3.3533862389E-01  5.4102540384E+00  1.9995199679E-03  1.9869381414E-03  7.4556582840E-01
  5.07000E+03  3.3558503023E-01  5.4065504477E+00  2.0051223728E-03  1.9924783552E-03  7.4556582840E-01
  5.07500E+03  3.3583159767E-01  5.4028532397E+00  2.0107353616E-03  1.9980289087E-03  7.4556582840E-01
  5.08000E+03  3.3607832644E-01  5.3991623997E+00  2.0163589450E-03  2.0035898119E-03  7.4556582840E-01
  5.08500E+03  3.3632521680E-01  5.3954779126E+00  2.0219931340E-03  2.0091610750E-03  7.4556582840E-01
  5.09000E+03  3.3657226899E-01  5.3917997638E+00  2.0276379394E-03  2.0147427082E-03  7.4556582840E-01
  5.09500E+03  3.3681948323E-01  5.3881279384E+00  2.0332933719E-03  2.0203347216E-03  7.4556582840E-01
  5.10000E+03  3.3706685979E-01  5.3844624218E+00  2.0389594426E-03  2.0259371254E-03  7.4556582840E-01
  5.10500E+03  3.3731439888E-01  5.3808031991E+00  2.0446361622E-03  2.0315499297E-03  7.4556582840E-01
  5.11000E+03  3.3756210076E-01  5.3771502557E+00  2.0503235417E-03  2.0371731447E-03  7.4556582840E-01
  5.11500E+03  3.3780996567E-01  5.3735035771E+00  2.0560215918E-03  2.0428067805E-03  7.4556582840E-01
  5.12000E+03  3.3805799383E-01  5.3698631486E+00  2.0617303235E-03  2.0484508474E-03  7.4556582840E-01
  5.12500E+03  3.3830618549E-01  5.3662289558E+00  2.0674497476E-03  2.0541053553E-03  7.4556582840E-01
  5.13000E+03  3.3855454089E-01  5.3626009842E+00  2.0731798751E-03  2.0597703146E-03  7.4556582840E-01
  5.13500E+03  3.3880306026E-01  5.3589792193E+00  2.0789207167E-03  2.0654457354E-03  7.4556582840E-01
  5.14000E+03  3.3905174384E-01  5.3553636466E+00  2.0846722834E-03  2.0711316279E-03  7.4556582840E-01
  5.14500E+03  3.3930059187E-01  5.3517542520E+00  2.0904345861E-03  2.0768280022E-03  7.4556582840E-01
  5.15000E+03  3.3954960458E-01  5.3481510210E+00  2.0962076356E-03  2.0825348685E-03  7.4556582840E-01
  5.15500E+03  3.3979878220E-01  5.3445539393E+00  2.1019914429E-03  2.0882522369E-03  7.4556582840E-01
  5.16000E+03  3.4004812497E-01  5.3409629928E+00  2.1077860188E-03  2.0939801177E-03  7.4556582840E-01
  5.16500E+03  3.4029763313E-01  5.3373781672E+00  2.1135913743E-03  2.0997185210E-03  7.4556582840E-01
  5.17000E+03  3.4054730691E-01  5.3337994485E+00  2.1194075203E-03  2.1054674570E-03  7.4556582840E-01
  5.17500E+03  3.4079714653E-01  5.3302268223E+00  2.1252344676E-03  2.1112269359E-03  7.4556582840E-01
  5.18000E+03  3.4104715224E-01  5.3266602748E+00  2.1310722271E-03  2.1169969679E-03  7.4556582840E-01
  5.18500E+03  3.4129732427E-01  5.3230997919E+00  2.1369208099E-03  2.1227775631E-03  7.4556582840E-01
  5.19000E+03  3.4154766284E-01  5.3195453595E+00  2.1427802267E-03  2.1285687317E-03  7.4556582840E-01
  5.19500E+03  3.4179816819E-01  5.3159969638E+00  2.1486504885E-03  2.1343704840E-03  7.4556582840E-01
  5.20000E+03  3.4204884056E-01  5.3124545908E+00  2.1545316063E-03  2.1401828300E-03  7.4556582840E-01
  5.20500E+03  3.4229968016E-01  5.3089182267E+00  2.1604235909E-03  2.1460057801E-03  7.4556582840E-01
  5.21000E+03  3.4255068723E-01  5.3053878576E+00  2.1663264533E-03  2.1518393444E-03  7.4556582840E-01
  5.21500E+03  3.4280186200E-01  5.3018634697E+00  2.1722402045E-03  2.1576835330E-03  7.4556582840E-01
  5.22000E+03  3.4305320470E-01  5.2983450493E+00  2.1781648552E-03  2.1635383562E-03  7.4556582840E-01
  5.22500E+03  3.4330471555E-01  5.2948325826E+00  2.1841004166E-03  2.1694038242E-03  7.4556582840E-01
  5.23000E+03  3.4355639480E-01  5.2913260561E+00  2.1900468995E-03  2.1752799472E-03  7.4556582840E-01
  5.23500E+03  3.4380824265E-01  5.2878254560E+00  2.1960043149E-03  2.1811667354E-03  7.4556582840E-01
  5.24000E+03  3.4406025935E-01  5.2843307688E+00  2.2019726736E-03  2.1870641990E-03  7.4556582840E-01
  5.24500E+03  3.4431244511E-01  5.2808419809E+00  2.2079519868E-03  2.1929723481E-03  7.4556582840E-01
  5.25000E+03  3.4456480016E-01  5.2773590789E+00  2.2139422652E-03  2.1988911931E-03  7.4556582840E-01
  5.25500E+03  3.4481732474E-01  5.2738820491E+00  2.2199435200E-03  2.2048207441E-03  7.4556582840E-01
  5.26000E+03  3.4507001906E-01  5.2704108782E+00  2.2259557619E-03  2.2107610113E-03  7.4556582840E-01
  5.26500E+03  3.4532288335E-01  5.2669455528E+00  2.2319790021E-03  2.2167120049E-03  7.4556582840E-01
  5.27000E+03  3.4557591784E-01  5.2634860596E+00  2.2380132514E-03  2.2226737352E-03  7.4556582840E-01
  5.27500E+03  3.4582912275E-01  5.2600323851E+00  2.2440585208E-03  2.2286462123E-03  7.4556582840E-01
  5.28000E+03  3.4608249830E-01  5.2565845161E+00  2.2501148214E-03  2.2346294466E-03  7.4556582840E-01
  5.28500E+03  3.4633604472E-01  5.2531424394E+00  2.2561821640E-03  2.2406234481E-03  7.4556582840E-01
  5.29000E+03  3.4658976223E-01  5.2497061418E+00  2.2622605596E-03  2.2466282272E-03  7.4556582840E-01
  5.29500E+03  3.4684365106E-01  5.2462756100E+00  2.2683500193E-03  2.2526437941E-03  7.4556582840E-01
  5.30000E+03  3.4709771142E-01  5.2428508310E+00  2.2744505540E-03  2.2586701589E-03  7.4556582840E-01
  5.30500E+03  3.4735194354E-01  5.2394317917E+00  2.2805621747E-03  2.2647073319E-03  7.4556582840E-01
  5.31000E+03  3.4760634764E-01  5.2360184789E+00  2.2866848923E-03  2.2707553234E-03  7.4556582840E-01
  5.31500E+03  3.4786092394E-01  5.2326108797E+00  2.2928187180E-03  2.2768141435E-03  7.4556582840E-01
  5.32000E+03  3.4811567266E-01  5.2292089811E+00  2.2989636626E-03  2.2828838026E-03  7.4556582840E-01
  5.32500E+03  3.4837059403E-01  5.2258127701E+00  2.3051197372E-03  2.2889643107E-03  7.4556582840E-01
  5.33000E+03  3.4862568826E-01  5.2224222338E+00  2.3112869528E-03  2.2950556783E-03  7.4556582840E-01
  5.33500E+03  3.4888095557E-01  5.2190373594E+00  2.3174653203E-03  2.3011579155E-03  7.4556582840E-01
  5.34000E+03  3.4913639618E-01  5.2156581340E+00  2.3236548508E-03  2.3072710325E-03  7.4556582840E-01
  5.34500E+03  3.4939201032E-01  5.2122845447E+00  2.3298555554E-03  2.3133950396E-03  7.4556582840E-01
  5.35000E+03  3.4964779819E-01  5.2089165790E+00  2.3360674449E-03  2.3195299471E-03  7.4556582840E-01
  5.35500E+03  3.4990376003E-01  5.2055542239E+00  2.3422905305E-03  2.3256757651E-03  7.4556582840E-01
  5.36000E+03  3.5015989604E-01  5.2021974668E+00  2.3485248232E-03  2.3318325040E-03  7.4556582840E-01
  5.36500E+03  3.5041620644E-01  5.1988462951E+00  2.3547703339E-03  2.3380001740E-03  7.4556582840E-01
  5.37000E+03  3.5067269145E-01  5.1955006961E+00  2.3610270737E-03  2.3441787853E-03  7.4556582840E-01
  5.37500E+03  3.5092935129E-01  5.1921606573E+00  2.3672950536E-03  2.3503683482E-03  7.4556582840E-01
  5.38000E+03  3.5118618618E-01  5.1888261661E+00  2.3735742847E-03  2.3565688730E-03  7.4556582840E-01
  5.38500E+03  3.5144319632E-01  5.1854972099E+00  2.3798647780E-03  2.3627803698E-03  7.4556582840E-01
  5.39000E+03  3.5170038194E-01  5.1821737764E+00  2.3861665446E-03  2.3690028490E-03  7.4556582840E-01
  5.39500E+03  3.5195774325E-01  5.1788558530E+00  2.3924795954E-03  2.3752363209E-03  7.4556582840E-01
  5.40000E+03  3.5221528047E-01  5.1755434274E+00  2.3988039416E-03  2.3814807956E-03  7.4556582840E-01
  5.40500E+03  3.5247299381E-01  5.1722364871E+00  2.4051395941E-03  2.3877362835E-03  7.4556582840E-01
  5.41000E+03  3.5273088349E-01  5.1689350199E+00  2.4114865641E-03  2.3940027948E-03  7.4556582840E-01
  5.41500E+03  3.5298894971E-01  5.1656390134E+00  2.4178448625E-03  2.4002803398E-03  7.4556582840E-01
  5.42000E+03  3.5324719270E-01  5.1623484554E+00  2.4242145005E-03  2.4065689287E-03  7.4556582840E-01
  5.42500E+03  3.5350561267E-01  5.1590633336E+00  2.4305954891E-03  2.4128685719E-03  7.4556582840E-01
  5.43000E+03  3.5376420983E-01  5.1557836358E+00  2.4369878393E-03  2.4191792796E-03  7.4556582840E-01
  5.43500E+03  3.5402298438E-01  5.1525093499E+00  2.4433915623E-03  2.4255010620E-03  7.4556582840E-01
  5.44000E+03  3.5428193656E-01  5.1492404637E+00  2.4498066691E-03  2.4318339295E-03  7.4556582840E-01
  5.44500E+03  3.5454106656E-01  5.1459769652E+00  2.4562331707E-03  2.4381778923E-03  7.4556582840E-01
  5.45000E+03  3.5480037460E-01  5.1427188422E+00  2.4626710783E-03  2.4445329608E-03  7.4556582840E-01
  5.45500E+03  3.5505986089E-01  5.1394660828E+00  2.4691204030E-03  2.4508991451E-03  7.4556582840E-01
  5.46000E+03  3.5531952564E-01  5.1362186749E+00  2.4755811557E-03  2.4572764556E-03  7.4556582840E-01
  5.46500E+03  3.5557936907E-01  5.1329766066E+00  2.4820533477E-03  2.4636649026E-03  7.4556582840E-01
  5.47000E+03  3.5583939137E-01  5.1297398660E+00  2.4885369899E-03  2.4700644964E-03  7.4556582840E-01
  5.47500E+03  3.5609959277E-01  5.1265084411E+00  2.4950320935E-03  2.4764752472E-03  7.4556582840E-01
  5.48000E+03  3.5635997348E-01  5.1232823201E+00  2.5015386696E-03  2.4828971653E-03  7.4556582840E-01
  5.48500E+03  3.5662053369E-01  5.1200614912E+00  2.5080567293E-03  2.4893302610E-03  7.4556582840E-01
  5.49000E+03  3.5688127363E-01  5.1168459425E+00  2.5145862836E-03  2.4957745447E-03  7.4556582840E-01
  5.49500E+03  3.5714219349E-01  5.1136356624E+00  2.5211273437E-03  2.5022300266E-03  7.4556582840E-01
  5.50000E+03  3.5740329350E-01  5.1104306391E+00  2.5276799207E-03  2.5086967171E-03  7.4556582840E-01
  5.50500E+03  3.5766457386E-01  5.1072308608E+00  2.5342440257E-03  2.5151746263E-03  7.4556582840E-01
  5.51000E+03  3.5792603477E-01  5.1040363160E+00  2.5408196699E-03  2.5216637647E-03  7.4556582840E-01
  5.51500E+03  3.5818767644E-01  5.1008469930E+00  2.5474068642E-03  2.5281641425E-03  7.4556582840E-01
  5.52000E+03  3.5844949908E-01  5.0976628801E+00  2.5540056199E-03  2.5346757701E-03  7.4556582840E-01
  5.52500E+03  3.5871150291E-01  5.0944839659E+00  2.5606159480E-03  2.5411986577E-03  7.4556582840E-01
  5.53000E+03  3.5897368811E-01  5.0913102388E+00  2.5672378598E-03  2.5477328156E-03  7.4556582840E-01
  5.53500E+03  3.5923605491E-01  5.0881416873E+00  2.5738713663E-03  2.5542782543E-03  7.4556582840E-01
  5.54000E+03  3.5949860351E-01  5.0849783000E+00  2.5805164786E-03  2.5608349839E-03  7.4556582840E-01
  5.54500E+03  3.5976133411E-01  5.0818200653E+00  2.5871732080E-03  2.5674030148E-03  7.4556582840E-01
  5.55000E+03  3.6002424692E-01  5.0786669719E+00  2.5938415654E-03  2.5739823573E-03  7.4556582840E-01
  5.55500E+03  3.6028734214E-01  5.0755190084E+00  2.6005215622E-03  2.5805730217E-03  7.4556582840E-01
  5.56000E+03  3.6055061999E-01  5.0723761635E+00  2.6072132093E-03  2.5871750185E-03  7.4556582840E-01
  5.56500E+03  3.6081408066E-01  5.0692384259E+00  2.6139165181E-03  2.5937883577E-03  7.4556582840E-01
  5.57000E+03  3.6107772436E-01  5.0661057842E+00  2.6206314995E-03  2.6004130499E-03  7.4556582840E-01
  5.57500E+03  3.6134155129E-01  5.0629782273E+00  2.6273581649E-03  2.6070491054E-03  7.4556582840E-01
  5.58000E+03  3.6160556166E-01  5.0598557439E+00  2.6340965252E-03  2.6136965343E-03  7.4556582840E-01
  5.58500E+03  3.6186975568E-01  5.0567383228E+00  2.6408465918E-03  2.6203553472E-03  7.4556582840E-01
  5.59000E+03  3.6213413353E-01  5.0536259529E+00  2.6476083757E-03  2.6270255543E-03  7.4556582840E-01
  5.59500E+03  3.6239869544E-01  5.0505186231E+00  2.6543818881E-03  2.6337071659E-03  7.4556582840E-01
  5.60000E+03  3.6266344160E-01  5.0474163222E+00  2.6611671402E-03  2.6404001925E-03  7.4556582840E-01
  5.60500E+03  3.6292837221E-01  5.0443190393E+00  2.6679641432E-03  2.6471046442E-03  7.4556582840E-01
  5.61000E+03  3.6319348748E-01  5.0412267632E+00  2.6747729082E-03  2.6538205316E-03  7.4556582840E-01
  5.61500E+03  3.6345878761E-01  5.0381394830E+00  2.6815934464E-03  2.6605478648E-03  7.4556582840E-01
  5.62000E+03  3.6372427280E-01  5.0350571877E+00  2.6884257691E-03  2.6672866543E-03  7.4556582840E-01
  5.62500E+03  3.6398994326E-01  5.0319798664E+00  2.6952698873E-03  2.6740369103E-03  7.4556582840E-01
  5.63000E+03  3.6425579917E-01  5.0289075082E+00  2.7021258123E-03  2.6807986434E-03  7.4556582840E-01
  5.63500E+03  3.6452184076E-01  5.0258401021E+00  2.7089935553E-03  2.6875718637E-03  7.4556582840E-01
  5.64000E+03  3.6478806820E-01  5.0227776374E+00  2.7158731274E-03  2.6943565816E-03  7.4556582840E-01
  5.64500E+03  3.6505448172E-01  5.0197201032E+00  2.7227645399E-03  2.7011528075E-03  7.4556582840E-01
  5.65000E+03  3.6532108150E-01  5.0166674887E+00  2.7296678040E-03  2.7079605518E-03  7.4556582840E-01
  5.65500E+03  3.6558786776E-01  5.0136197832E+00  2.7365829308E-03  2.7147798248E-03  7.4556582840E-01
  5.66000E+03  3.6585484067E-01  5.0105769760E+00  2.7435099316E-03  2.7216106369E-03  7.4556582840E-01
  5.66500E+03  3.6612200046E-01  5.0075390562E+00  2.7504488176E-03  2.7284529983E-03  7.4556582840E-01
  5.67000E+03  3.6638934731E-01  5.0045060134E+00  2.7573996000E-03  2.7353069196E-03  7.4556582840E-01
  5.67500E+03  3.6665688143E-01  5.0014778368E+00  2.7643622900E-03  2.7421724109E-03  7.4556582840E-01
  5.68000E+03  3.6692460302E-01  4.9984545158E+00  2.7713368988E-03  2.7490494828E-03  7.4556582840E-01
  5.68500E+03  3.6719251227E-01  4.9954360399E+00  2.7783234377E-03  2.7559381456E-03  7.4556582840E-01
  5.69000E+03  3.6746060938E-01  4.9924223985E+00  2.7853219178E-03  2.7628384096E-03  7.4556582840E-01
  5.69500E+03  3.6772889455E-01  4.9894135810E+00  2.7923323505E-03  2.7697502852E-03  7.4556582840E-01
  5.70000E+03  3.6799736798E-01  4.9864095770E+00  2.7993547470E-03  2.7766737828E-03  7.4556582840E-01
  5.70500E+03  3.6826602987E-01  4.9834103760E+00  2.8063891184E-03  2.7836089128E-03  7.4556582840E-01
  5.71000E+03  3.6853488041E-01  4.9804159676E+00  2.8134354760E-03  2.7905556854E-03  7.4556582840E-01
  5.71500E+03  3.6880391980E-01  4.9774263414E+00  2.8204938311E-03  2.7975141112E-03  7.4556582840E-01
  5.72000E+03  3.6907314824E-01  4.9744414869E+00  2.8275641949E-03  2.8044842005E-03  7.4556582840E-01
  5.72500E+03  3.6934256593E-01  4.9714613939E+00  2.8346465786E-03  2.8114659637E-03  7.4556582840E-01
  5.73000E+03  3.6961217306E-01  4.9684860520E+00  2.8417409936E-03  2.8184594111E-03  7.4556582840E-01
  5.73500E+03  3.6988196983E-01  4.9655154509E+00  2.8488474510E-03  2.8254645531E-03  7.4556582840E-01
  5.74000E+03  3.7015195644E-01  4.9625495804E+00  2.8559659621E-03  2.8324814002E-03  7.4556582840E-01
  5.74500E+03  3.7042213308E-01  4.9595884302E+00  2.8630965382E-03  2.8395099627E-03  7.4556582840E-01
  5.75000E+03  3.7069249994E-01  4.9566319900E+00  2.8702391906E-03  2.8465502510E-03  7.4556582840E-01
  5.75500E+03  3.7096305723E-01  4.9536802499E+00  2.8773939304E-03  2.8536022754E-03  7.4556582840E-01
  5.76000E+03  3.7123380513E-01  4.9507331994E+00  2.8845607691E-03  2.8606660465E-03  7.4556582840E-01
  5.76500E+03  3.7150474385E-01  4.9477908287E+00  2.8917397177E-03  2.8677415745E-03  7.4556582840E-01
  5.77000E+03  3.7177587358E-01  4.9448531274E+00  2.8989307878E-03  2.8748288700E-03  7.4556582840E-01
  5.77500E+03  3.7204719451E-01  4.9419200857E+00  2.9061339904E-03  2.8819279432E-03  7.4556582840E-01
  5.78000E+03  3.7231870684E-01  4.9389916934E+00  2.9133493369E-03  2.8890388046E-03  7.4556582840E-01
  5.78500E+03  3.7259041077E-01  4.9360679405E+00  2.9205768386E-03  2.8961614645E-03  7.4556582840E-01
  5.79000E+03  3.7286230648E-01  4.9331488170E+00  2.9278165067E-03  2.9032959335E-03  7.4556582840E-01
  5.79500E+03  3.7313439417E-01  4.9302343130E+00  2.9350683526E-03  2.9104422219E-03  7.4556582840E-01
  5.80000E+03  3.7340667403E-01  4.9273244185E+00  2.9423323876E-03  2.9176003400E-03  7.4556582840E-01
  5.80500E+03  3.7367914627E-01  4.9244191237E+00  2.9496086228E-03  2.9247702984E-03  7.4556582840E-01
  5.81000E+03  3.7395181106E-01  4.9215184186E+00  2.9568970698E-03  2.9319521074E-03  7.4556582840E-01
  5.81500E+03  3.7422466861E-01  4.9186222934E+00  2.9641977397E-03  2.9391457774E-03  7.4556582840E-01
  5.82000E+03  3.7449771911E-01  4.9157307383E+00  2.9715106439E-03  2.9463513189E-03  7.4556582840E-01
  5.82500E+03  3.7477096275E-01  4.9128437434E+00  2.9788357936E-03  2.9535687422E-03  7.4556582840E-01
  5.83000E+03  3.7504439972E-01  4.9099612990E+00  2.9861732002E-03  2.9607980579E-03  7.4556582840E-01
  5.83500E+03  3.7531803022E-01  4.9070833954E+00  2.9935228750E-03  2.9680392762E-03  7.4556582840E-01
  5.84000E+03  3.7559185443E-01  4.9042100228E+00  3.0008848294E-03  2.9752924077E-03  7.4556582840E-01
  5.84500E+03  3.7586587256E-01  4.9013411716E+00  3.0082590746E-03  2.9825574628E-03  7.4556582840E-01
  5.85000E+03  3.7614008479E-01  4.8984768320E+00  3.0156456219E-03  2.9898344518E-03  7.4556582840E-01
  5.85500E+03  3.7641449131E-01  4.8956169944E+00  3.0230444828E-03  2.9971233852E-03  7.4556582840E-01
  5.86000E+03  3.7668909232E-01  4.8927616493E+00  3.0304556685E-03  3.0044242735E-03  7.4556582840E-01
  5.86500E+03  3.7696388800E-01  4.8899107869E+00  3.0378791904E-03  3.0117371271E-03  7.4556582840E-01
  5.87000E+03  3.7723887855E-01  4.8870643979E+00  3.0453150598E-03  3.0190619563E-03  7.4556582840E-01
  5.87500E+03  3.7751406416E-01  4.8842224725E+00  3.0527632880E-03  3.0263987717E-03  7.4556582840E-01
  5.88000E+03  3.7778944502E-01  4.8813850014E+00  3.0602238864E-03  3.0337475837E-03  7.4556582840E-01
  5.88500E+03  3.7806502133E-01  4.8785519750E+00  3.0676968664E-03  3.0411084027E-03  7.4556582840E-01
  5.89000E+03  3.7834079326E-01  4.8757233839E+00  3.0751822393E-03  3.0484812391E-03  7.4556582840E-01
  5.89500E+03  3.7861676101E-01  4.8728992186E+00  3.0826800164E-03  3.0558661035E-03  7.4556582840E-01
  5.90000E+03  3.7889292477E-01  4.8700794697E+00  3.0901902091E-03  3.0632630062E-03  7.4556582840E-01
  5.90500E+03  3.7916928474E-01  4.8672641279E+00  3.0977128288E-03  3.0706719577E-03  7.4556582840E-01
  5.91000E+03  3.7944584109E-01  4.8644531837E+00  3.1052478869E-03  3.0780929684E-03  7.4556582840E-01
  5.91500E+03  3.7972259403E-01  4.8616466279E+00  3.1127953946E-03  3.0855260488E-03  7.4556582840E-01
  5.92000E+03  3.7999954373E-01  4.8588444512E+00  3.1203553634E-03  3.0929712094E-03  7.4556582840E-01
  5.92500E+03  3.8027669040E-01  4.8560466442E+00  3.1279278047E-03  3.1004284605E-03  7.4556582840E-01
  5.93000E+03  3.8055403421E-01  4.8532531977E+00  3.1355127298E-03  3.1078978127E-03  7.4556582840E-01
  5.93500E+03  3.8083157536E-01  4.8504641025E+00  3.1431101500E-03  3.1153792764E-03  7.4556582840E-01
  5.94000E+03  3.8110931404E-01  4.8476793494E+00  3.1507200769E-03  3.1228728621E-03  7.4556582840E-01
  5.94500E+03  3.8138725043E-01  4.8448989291E+00  3.1583425217E-03  3.1303785802E-03  7.4556582840E-01
  5.95000E+03  3.8166538472E-01  4.8421228326E+00  3.1659774959E-03  3.1378964412E-03  7.4556582840E-01
  5.95500E+03  3.8194371711E-01  4.8393510507E+00  3.1736250109E-03  3.1454264555E-03  7.4556582840E-01
  5.96000E+03  3.8222224778E-01  4.8365835742E+00  3.1812850780E-03  3.1529686337E-03  7.4556582840E-01
  5.96500E+03  3.8250097691E-01  4.8338203941E+00  3.1889577086E-03  3.1605229861E-03  7.4556582840E-01
  5.97000E+03  3.8277990470E-01  4.8310615014E+00  3.1966429142E-03  3.1680895233E-03  7.4556582840E-01
  5.97500E+03  3.8305903133E-01  4.8283068870E+00  3.2043407061E-03  3.1756682557E-03  7.4556582840E-01
  5.98000E+03  3.8333835699E-01  4.8255565418E+00  3.2120510958E-03  3.1832591938E-03  7.4556582840E-01
  5.98500E+03  3.8361788187E-01  4.8228104570E+00  3.2197740947E-03  3.1908623481E-03  7.4556582840E-01
  5.99000E+03  3.8389760616E-01  4.8200686235E+00  3.2275097142E-03  3.1984777290E-03  7.4556582840E-01
  5.99500E+03  3.8417753003E-01  4.8173310324E+00  3.2352579657E-03  3.2061053471E-03  7.4556582840E-01
  6.00000E+03  3.8445765362E-01  4.8145976756E+00  3.2430188586E-03  3.2137452108E-03  7.4556582840E-01
  6.00500E+03  3.8473796554E-01  4.8118687013E+00  3.2507920668E-03  3.2213969984E-03  7.4556582840E-01
  6.01000E+03  3.8501847739E-01  4.8091439427E+00  3.2585779397E-03  3.2290610530E-03  7.4556582840E-01
  6.01500E+03  3.8529918915E-01  4.8064233914E+00  3.2663764885E-03  3.2367373851E-03  7.4556582840E-01
  6.02000E+03  3.8558010081E-01  4.8037070391E+00  3.2741877247E-03  3.2444260047E-03  7.4556582840E-01
  6.02500E+03  3.8586121233E-01  4.8009948771E+00  3.2820116593E-03  3.2521269224E-03  7.4556582840E-01
  6.03000E+03  3.8614252369E-01  4.7982868972E+00  3.2898483037E-03  3.2598401483E-03  7.4556582840E-01
  6.03500E+03  3.8642403488E-01  4.7955830909E+00  3.2976976692E-03  3.2675656927E-03  7.4556582840E-01
  6.04000E+03  3.8670574587E-01  4.7928834499E+00  3.3055597669E-03  3.2753035660E-03  7.4556582840E-01
  6.04500E+03  3.8698765664E-01  4.7901879659E+00  3.3134346081E-03  3.2830537785E-03  7.4556582840E-01
  6.05000E+03  3.8726976717E-01  4.7874966305E+00  3.3213222042E-03  3.2908163404E-03  7.4556582840E-01
  6.05500E+03  3.8755207744E-01  4.7848094353E+00  3.3292225664E-03  3.2985912620E-03  7.4556582840E-01
  6.06000E+03  3.8783458743E-01  4.7821263722E+00  3.3371357059E-03  3.3063785537E-03  7.4556582840E-01
  6.06500E+03  3.8811729713E-01  4.7794474329E+00  3.3450616340E-03  3.3141782258E-03  7.4556582840E-01
  6.07000E+03  3.8840020650E-01  4.7767726090E+00  3.3530003620E-03  3.3219902885E-03  7.4556582840E-01
  6.07500E+03  3.8868331553E-01  4.7741018925E+00  3.3609519012E-03  3.3298147522E-03  7.4556582840E-01
  6.08000E+03  3.8896662420E-01  4.7714352750E+00  3.3689162629E-03  3.3376516272E-03  7.4556582840E-01
  6.08500E+03  3.8925013250E-01  4.7687727484E+00  3.3768934583E-03  3.3455009237E-03  7.4556582840E-01
  6.09000E+03  3.8953384040E-01  4.7661143046E+00  3.3848834987E-03  3.3533626521E-03  7.4556582840E-01
  6.09500E+03  3.8981774788E-01  4.7634599354E+00  3.3928863954E-03  3.3612368227E-03  7.4556582840E-01
  6.10000E+03  3.9010185494E-01  4.7608096327E+00  3.4009021598E-03  3.3691234459E-03  7.4556582840E-01
  6.10500E+03  3.9038616154E-01  4.7581633883E+00  3.4089308030E-03  3.3770225318E-03  7.4556582840E-01
  6.11000E+03  3.9067066768E-01  4.7555211943E+00  3.4169723365E-03  3.3849340908E-03  7.4556582840E-01
  6.11500E+03  3.9095537333E-01  4.7528830425E+00  3.4250267714E-03  3.3928581333E-03  7.4556582840E-01
  6.12000E+03  3.9124027849E-01  4.7502489248E+00  3.4330941191E-03  3.4007946695E-03  7.4556582840E-01
  6.12500E+03  3.9152538312E-01  4.7476188333E+00  3.4411743909E-03  3.4087437098E-03  7.4556582840E-01
  6.13000E+03  3.9181068722E-01  4.7449927600E+00  3.4492675981E-03  3.4167052644E-03  7.4556582840E-01
  6.13500E+03  3.9209619077E-01  4.7423706969E+00  3.4573737519E-03  3.4246793437E-03  7.4556582840E-01
  6.14000E+03  3.9238189375E-01  4.7397526360E+00  3.4654928638E-03  3.4326659581E-03  7.4556582840E-01
  6.14500E+03  3.9266779615E-01  4.7371385693E+00  3.4736249450E-03  3.4406651177E-03  7.4556582840E-01
  6.15000E+03  3.9295389795E-01  4.7345284890E+00  3.4817700069E-03  3.4486768330E-03  7.4556582840E-01
  6.15500E+03  3.9324019914E-01  4.7319223871E+00  3.4899280606E-03  3.4567011142E-03  7.4556582840E-01
  6.16000E+03  3.9352669970E-01  4.7293202558E+00  3.4980991177E-03  3.4647379717E-03  7.4556582840E-01
  6.16500E+03  3.9381339963E-01  4.7267220872E+00  3.5062831893E-03  3.4727874157E-03  7.4556582840E-01
  6.17000E+03  3.9410029889E-01  4.7241278734E+00  3.5144802868E-03  3.4808494567E-03  7.4556582840E-01
  6.17500E+03  3.9438739749E-01  4.7215376066E+00  3.5226904215E-03  3.4889241049E-03  7.4556582840E-01
  6.18000E+03  3.9467469540E-01  4.7189512790E+00  3.5309136048E-03  3.4970113707E-03  7.4556582840E-01
  6.18500E+03  3.9496219261E-01  4.7163688828E+00  3.5391498480E-03  3.5051112643E-03  7.4556582840E-01
  6.19000E+03  3.9524988911E-01  4.7137904103E+00  3.5473991624E-03  3.5132237961E-03  7.4556582840E-01
  6.19500E+03  3.9553778489E-01  4.7112158536E+00  3.5556615594E-03  3.5213489765E-03  7.4556582840E-01
  6.20000E+03  3.9582587993E-01  4.7086452051E+00  3.5639370502E-03  3.5294868157E-03  7.4556582840E-01
  6.20500E+03  3.9611417422E-01  4.7060784570E+00  3.5722256463E-03  3.5376373240E-03  7.4556582840E-01
  6.21000E+03  3.9640266776E-01  4.7035156016E+00  3.5805273589E-03  3.5458005119E-03  7.4556582840E-01
  6.21500E+03  3.9669136051E-01  4.7009566314E+00  3.5888421994E-03  3.5539763896E-03  7.4556582840E-01
  6.22000E+03  3.9698025249E-01  4.6984015385E+00  3.5971701792E-03  3.5621649674E-03  7.4556582840E-01
  6.22500E+03  3.9726934366E-01  4.6958503154E+00  3.6055113096E-03  3.5703662557E-03  7.4556582840E-01
  6.23000E+03  3.9755863403E-01  4.6933029544E+00  3.6138656020E-03  3.5785802649E-03  7.4556582840E-01
  6.23500E+03  3.9784812358E-01  4.6907594480E+00  3.6222330676E-03  3.5868070051E-03  7.4556582840E-01
  6.24000E+03  3.9813781229E-01  4.6882197885E+00  3.6306137179E-03  3.5950464869E-03  7.4556582840E-01
  6.24500E+03  3.9842770017E-01  4.6856839685E+00  3.6390075642E-03  3.6032987205E-03  7.4556582840E-01
  6.25000E+03  3.9871778720E-01  4.6831519802E+00  3.6474146179E-03  3.6115637162E-03  7.4556582840E-01
  6.25500E+03  3.9900807336E-01  4.6806238163E+00  3.6558348904E-03  3.6198414843E-03  7.4556582840E-01
  6.26000E+03  3.9929855866E-01  4.6780994692E+00  3.6642683929E-03  3.6281320353E-03  7.4556582840E-01
  6.26500E+03  3.9958924307E-01  4.6755789315E+00  3.6727151370E-03  3.6364353794E-03  7.4556582840E-01
  6.27000E+03  3.9988012660E-01  4.6730621955E+00  3.6811751338E-03  3.6447515270E-03  7.4556582840E-01
  6.27500E+03  4.0017120922E-01  4.6705492540E+00  3.6896483949E-03  3.6530804885E-03  7.4556582840E-01
  6.28000E+03  4.0046249094E-01  4.6680400994E+00  3.6981349315E-03  3.6614222740E-03  7.4556582840E-01
  6.28500E+03  4.0075397174E-01  4.6655347243E+00  3.7066347551E-03  3.6697768941E-03  7.4556582840E-01
  6.29000E+03  4.0104565162E-01  4.6630331214E+00  3.7151478771E-03  3.6781443590E-03  7.4556582840E-01
  6.29500E+03  4.0133753056E-01  4.6605352832E+00  3.7236743087E-03  3.6865246791E-03  7.4556582840E-01
  6.30000E+03  4.0162960856E-01  4.6580412023E+00  3.7322140615E-03  3.6949178647E-03  7.4556582840E-01
  6.30500E+03  4.0192188561E-01  4.6555508716E+00  3.7407671467E-03  3.7033239261E-03  7.4556582840E-01
  6.31000E+03  4.0221436171E-01  4.6530642835E+00  3.7493335758E-03  3.7117428737E-03  7.4556582840E-01
  6.31500E+03  4.0250703684E-01  4.6505814308E+00  3.7579133602E-03  3.7201747179E-03  7.4556582840E-01
  6.32000E+03  4.0279991100E-01  4.6481023062E+00  3.7665065112E-03  3.7286194690E-03  7.4556582840E-01
  6.32500E+03  4.0309298419E-01  4.6456269025E+00  3.7751130403E-03  3.7370771373E-03  7.4556582840E-01
  6.33000E+03  4.0338625639E-01  4.6431552123E+00  3.7837329588E-03  3.7455477332E-03  7.4556582840E-01
  6.33500E+03  4.0367972759E-01  4.6406872284E+00  3.7923662782E-03  3.7540312669E-03  7.4556582840E-01
  6.34000E+03  4.0397339781E-01  4.6382229436E+00  3.8010130098E-03  3.7625277490E-03  7.4556582840E-01
  6.34500E+03  4.0426726702E-01  4.6357623507E+00  3.8096731650E-03  3.7710371897E-03  7.4556582840E-01
  6.35000E+03  4.0456133522E-01  4.6333054425E+00  3.8183467553E-03  3.7795595993E-03  7.4556582840E-01
  6.35500E+03  4.0485560241E-01  4.6308522119E+00  3.8270337921E-03  3.7880949883E-03  7.4556582840E-01
  6.36000E+03  4.0515006858E-01  4.6284026516E+00  3.8357342867E-03  3.7966433669E-03  7.4556582840E-01
  6.36500E+03  4.0544473372E-01  4.6259567546E+00  3.8444482507E-03  3.8052047455E-03  7.4556582840E-01
  6.37000E+03  4.0573959784E-01  4.6235145137E+00  3.8531756953E-03  3.8137791345E-03  7.4556582840E-01
  6.37500E+03  4.0603466092E-01  4.6210759218E+00  3.8619166321E-03  3.8223665443E-03  7.4556582840E-01
  6.38000E+03  4.0632992297E-01  4.6186409719E+00  3.8706710723E-03  3.8309669851E-03  7.4556582840E-01
  6.38500E+03  4.0662538397E-01  4.6162096568E+00  3.8794390276E-03  3.8395804673E-03  7.4556582840E-01
  6.39000E+03  4.0692104393E-01  4.6137819695E+00  3.8882205092E-03  3.8482070013E-03  7.4556582840E-01
  6.39500E+03  4.0721690284E-01  4.6113579031E+00  3.8970155287E-03  3.8568465974E-03  7.4556582840E-01
  6.40000E+03  4.0751296069E-01  4.6089374504E+00  3.9058240974E-03  3.8654992661E-03  7.4556582840E-01
  6.40500E+03  4.0780921749E-01  4.6065206044E+00  3.9146462267E-03  3.8741650175E-03  7.4556582840E-01
  6.41000E+03  4.0810567323E-01  4.6041073583E+00  3.9234819282E-03  3.8828438622E-03  7.4556582840E-01
  6.41500E+03  4.0840232790E-01  4.6016977050E+00  3.9323312132E-03  3.8915358105E-03  7.4556582840E-01
