#[MATERIAL DEFINITION FOR MC-GPU: interaction mean free path and sampling data from PENELOPE 2006]
#[MATERIAL NAME]
# ALUMINUM  (13)                                                
#[NOMINAL DENSITY (g/cm^3)]
#   2.69890000
#[NUMBER OF DATA VALUES]
#  23002
#[MEAN FREE PATHS (cm) (ie, average distance between interactions)]
#[Energy (eV)     | Rayleigh        | Compton         | Photoelectric   | TOTAL (+pair prod) (cm) | Rayleigh: max cumul prob F^2]
  5.00000E3  3.3393107040E-1  4.8187098959E0  1.9290147648E-3  1.9171723849E-3  2.8508823804E-1
  5.00500E3  3.3418509069E-1  4.8157001008E0  1.9345243850E-3  1.9226224040E-3  2.8543493488E-1
  5.01000E3  3.3443905029E-1  4.8126951881E0  1.9400442166E-3  1.9280823936E-3  2.8578151562E-1
  5.01500E3  3.3469294926E-1  4.8096951451E0  1.9455742686E-3  1.9335523616E-3  2.8612797983E-1
  5.02000E3  3.3494678769E-1  4.8066999589E0  1.9511145495E-3  1.9390323161E-3  2.8647432706E-1
  5.02500E3  3.3520056565E-1  4.8037096170E0  1.9566650680E-3  1.9445222650E-3  2.8682055687E-1
  5.03000E3  3.3545428321E-1  4.8007241066E0  1.9622258329E-3  1.9500222162E-3  2.8716666885E-1
  5.03500E3  3.3570794045E-1  4.7977434152E0  1.9677968529E-3  1.9555321778E-3  2.8751266254E-1
  5.04000E3  3.3596153743E-1  4.7947675301E0  1.9733781366E-3  1.9610521576E-3  2.8785853752E-1
  5.04500E3  3.3621507424E-1  4.7917964390E0  1.9789696928E-3  1.9665821636E-3  2.8820429337E-1
  5.05000E3  3.3646855096E-1  4.7888301294E0  1.9845715301E-3  1.9721222038E-3  2.8854992964E-1
  5.05500E3  3.3672196764E-1  4.7858685887E0  1.9901836573E-3  1.9776722862E-3  2.8889544592E-1
  5.06000E3  3.3697532437E-1  4.7829118047E0  1.9958060831E-3  1.9832324185E-3  2.8924084178E-1
  5.06500E3  3.3722862122E-1  4.7799597651E0  2.0014388160E-3  1.9888026089E-3  2.8958611680E-1
  5.07000E3  3.3748185826E-1  4.7770124574E0  2.0070818650E-3  1.9943828652E-3  2.8993127055E-1
  5.07500E3  3.3773503557E-1  4.7740698696E0  2.0127352385E-3  1.9999731953E-3  2.9027630262E-1
  5.08000E3  3.3798815322E-1  4.7711319894E0  2.0183989454E-3  2.0055736073E-3  2.9062121259E-1
  5.08500E3  3.3824435282E-1  4.7682118675E0  2.0240729943E-3  2.0111842224E-3  2.9096600003E-1
  5.09000E3  3.3850080036E-1  4.7652976699E0  2.0297573938E-3  2.0168049472E-3  2.9131066454E-1
  5.09500E3  3.3875719026E-1  4.7623881122E0  2.0354521528E-3  2.0224357786E-3  2.9165520570E-1
  5.10000E3  3.3901352259E-1  4.7594831821E0  2.0411572798E-3  2.0280767247E-3  2.9199962311E-1
  5.10500E3  3.3926979741E-1  4.7565828680E0  2.0468727836E-3  2.0337277932E-3  2.9234391634E-1
  5.11000E3  3.3952601480E-1  4.7536871580E0  2.0525986728E-3  2.0393889922E-3  2.9268808499E-1
  5.11500E3  3.3978217481E-1  4.7507960402E0  2.0583349561E-3  2.0450603296E-3  2.9303212866E-1
  5.12000E3  3.4003827753E-1  4.7479095029E0  2.0640816422E-3  2.0507418132E-3  2.9337604693E-1
  5.12500E3  3.4029432302E-1  4.7450275344E0  2.0698387398E-3  2.0564334510E-3  2.9371983941E-1
  5.13000E3  3.4055031135E-1  4.7421501230E0  2.0756062575E-3  2.0621352508E-3  2.9406350569E-1
  5.13500E3  3.4080624259E-1  4.7392772570E0  2.0813842041E-3  2.0678472207E-3  2.9440704537E-1
  5.14000E3  3.4106211680E-1  4.7364089249E0  2.0871725881E-3  2.0735693684E-3  2.9475045805E-1
  5.14500E3  3.4131793405E-1  4.7335451151E0  2.0929714184E-3  2.0793017020E-3  2.9509374333E-1
  5.15000E3  3.4157369442E-1  4.7306858161E0  2.0987807034E-3  2.0850442292E-3  2.9543690083E-1
  5.15500E3  3.4182939797E-1  4.7278310164E0  2.1046004521E-3  2.0907969580E-3  2.9577993025E-1
  5.16000E3  3.4208504477E-1  4.7249807046E0  2.1104306729E-3  2.0965598963E-3  2.9612283126E-1
  5.16500E3  3.4234256387E-1  4.7221428627E0  2.1162713745E-3  2.1023331262E-3  2.9646560342E-1
  5.17000E3  3.4260158422E-1  4.7193159113E0  2.1221225657E-3  2.1081166423E-3  2.9680824633E-1
  5.17500E3  3.4286054988E-1  4.7164933824E0  2.1279842551E-3  2.1139103927E-3  2.9715075956E-1
  5.18000E3  3.4311946092E-1  4.7136752649E0  2.1338564513E-3  2.1197143853E-3  2.9749314270E-1
  5.18500E3  3.4337831740E-1  4.7108615477E0  2.1397391631E-3  2.1255286279E-3  2.9783539532E-1
  5.19000E3  3.4363711938E-1  4.7080522197E0  2.1456323990E-3  2.1313531284E-3  2.9817751703E-1
  5.19500E3  3.4389586693E-1  4.7052472698E0  2.1515361678E-3  2.1371878948E-3  2.9851950741E-1
  5.20000E3  3.4415456011E-1  4.7024466870E0  2.1574504781E-3  2.1430329349E-3  2.9886136605E-1
  5.20500E3  3.4441319899E-1  4.6996504603E0  2.1633753386E-3  2.1488882565E-3  2.9920309253E-1
  5.21000E3  3.4467178363E-1  4.6968585787E0  2.1693107579E-3  2.1547538676E-3  2.9954468646E-1
  5.21500E3  3.4493031409E-1  4.6940710313E0  2.1752567447E-3  2.1606297759E-3  2.9988614743E-1
  5.22000E3  3.4518879043E-1  4.6912878073E0  2.1812133076E-3  2.1665159894E-3  3.0022747504E-1
  5.22500E3  3.4544721273E-1  4.6885088958E0  2.1871804553E-3  2.1724125160E-3  3.0056866888E-1
  5.23000E3  3.4570558103E-1  4.6857342860E0  2.1931581965E-3  2.1783193634E-3  3.0090972856E-1
  5.23500E3  3.4596389542E-1  4.6829639672E0  2.1991465397E-3  2.1842365396E-3  3.0125065367E-1
  5.24000E3  3.4622215593E-1  4.6801979286E0  2.2051454937E-3  2.1901640523E-3  3.0159144382E-1
  5.24500E3  3.4648036265E-1  4.6774361595E0  2.2111550672E-3  2.1961019095E-3  3.0193209861E-1
  5.25000E3  3.4674180133E-1  4.6746921915E0  2.2171752686E-3  2.2020502545E-3  3.0227261765E-1
  5.25500E3  3.4700342699E-1  4.6719534262E0  2.2232061068E-3  2.2080089706E-3  3.0261300056E-1
  5.26000E3  3.4726500096E-1  4.6692188678E0  2.2292475902E-3  2.2139780560E-3  3.0295324693E-1
  5.26500E3  3.4752652329E-1  4.6664885058E0  2.2352997277E-3  2.2199575184E-3  3.0329335637E-1
  5.27000E3  3.4778799406E-1  4.6637623299E0  2.2413625278E-3  2.2259473656E-3  3.0363332851E-1
  5.27500E3  3.4804941331E-1  4.6610403296E0  2.2474359992E-3  2.2319476056E-3  3.0397316296E-1
  5.28000E3  3.4831078111E-1  4.6583224946E0  2.2535201504E-3  2.2379582462E-3  3.0431285932E-1
  5.28500E3  3.4857209752E-1  4.6556088146E0  2.2596149903E-3  2.2439792952E-3  3.0465241723E-1
  5.29000E3  3.4883336259E-1  4.6528992794E0  2.2657205273E-3  2.2500107603E-3  3.0499183629E-1
  5.29500E3  3.4909457638E-1  4.6501938786E0  2.2718367701E-3  2.2560526496E-3  3.0533111613E-1
  5.30000E3  3.4935573896E-1  4.6474926022E0  2.2779637274E-3  2.2621049707E-3  3.0567025637E-1
  5.30500E3  3.4961685037E-1  4.6447954398E0  2.2841014078E-3  2.2681677315E-3  3.0600925663E-1
  5.31000E3  3.4987791068E-1  4.6421023814E0  2.2902498200E-3  2.2742409398E-3  3.0634811655E-1
  5.31500E3  3.5013891995E-1  4.6394134169E0  2.2964089725E-3  2.2803246035E-3  3.0668683573E-1
  5.32000E3  3.5039987823E-1  4.6367285362E0  2.3025788740E-3  2.2864187303E-3  3.0702541382E-1
  5.32500E3  3.5066078558E-1  4.6340477293E0  2.3087595331E-3  2.2925233280E-3  3.0736385045E-1
  5.33000E3  3.5092179689E-1  4.6313716214E0  2.3149509585E-3  2.2986384113E-3  3.0770214524E-1
  5.33500E3  3.5118616623E-1  4.6287135322E0  2.3211531588E-3  2.3047641316E-3  3.0804029783E-1
  5.34000E3  3.5145048680E-1  4.6260594565E0  2.3273661425E-3  2.3109003474E-3  3.0837830785E-1
  5.34500E3  3.5171475866E-1  4.6234093844E0  2.3335899185E-3  2.3170470668E-3  3.0871617493E-1
  5.35000E3  3.5197898185E-1  4.6207633062E0  2.3398244951E-3  2.3232042975E-3  3.0905389873E-1
  5.35500E3  3.5224315645E-1  4.6181212120E0  2.3460698812E-3  2.3293720472E-3  3.0939147886E-1
  5.36000E3  3.5250728249E-1  4.6154830923E0  2.3523260853E-3  2.3355503238E-3  3.0972891499E-1
  5.36500E3  3.5277136004E-1  4.6128489372E0  2.3585931160E-3  2.3417391351E-3  3.1006620674E-1
  5.37000E3  3.5303538914E-1  4.6102187373E0  2.3648709819E-3  2.3479384888E-3  3.1040335376E-1
  5.37500E3  3.5329936986E-1  4.6075924828E0  2.3711596917E-3  2.3541483928E-3  3.1074035569E-1
  5.38000E3  3.5356330224E-1  4.6049701641E0  2.3774592540E-3  2.3603688549E-3  3.1107721219E-1
  5.38500E3  3.5382718634E-1  4.6023517718E0  2.3837696774E-3  2.3665998827E-3  3.1141392290E-1
  5.39000E3  3.5409102222E-1  4.5997372963E0  2.3900909705E-3  2.3728414842E-3  3.1175048747E-1
  5.39500E3  3.5435480992E-1  4.5971267282E0  2.3964231419E-3  2.3790936671E-3  3.1208690555E-1
  5.40000E3  3.5461854950E-1  4.5945200579E0  2.4027662003E-3  2.3853564391E-3  3.1242317680E-1
  5.40500E3  3.5488224102E-1  4.5919172761E0  2.4091201542E-3  2.3916298080E-3  3.1275930086E-1
  5.41000E3  3.5514588452E-1  4.5893183733E0  2.4154850123E-3  2.3979137816E-3  3.1309527739E-1
  5.41500E3  3.5540948007E-1  4.5867233402E0  2.4218607831E-3  2.4042083677E-3  3.1343110606E-1
  5.42000E3  3.5567620821E-1  4.5841451152E0  2.4282474753E-3  2.4105137237E-3  3.1376678652E-1
  5.42500E3  3.5594331274E-1  4.5815724323E0  2.4346450976E-3  2.4168297288E-3  3.1410231843E-1
  5.43000E3  3.5621037151E-1  4.5790035612E0  2.4410536584E-3  2.4231563711E-3  3.1443770144E-1
  5.43500E3  3.5647738458E-1  4.5764384928E0  2.4474731664E-3  2.4294936583E-3  3.1477293523E-1
  5.44000E3  3.5674435200E-1  4.5738772180E0  2.4539036302E-3  2.4358415981E-3  3.1510801947E-1
  5.44500E3  3.5701127381E-1  4.5713197278E0  2.4603450584E-3  2.4422001983E-3  3.1544295380E-1
  5.45000E3  3.5727815007E-1  4.5687660130E0  2.4667974596E-3  2.4485694667E-3  3.1577773791E-1
  5.45500E3  3.5754498082E-1  4.5662160646E0  2.4732608424E-3  2.4549494110E-3  3.1611237146E-1
  5.46000E3  3.5781176612E-1  4.5636698737E0  2.4797352154E-3  2.4613400390E-3  3.1644685412E-1
  5.46500E3  3.5807850601E-1  4.5611274312E0  2.4862205872E-3  2.4677413584E-3  3.1678118556E-1
  5.47000E3  3.5834520054E-1  4.5585887282E0  2.4927169664E-3  2.4741533769E-3  3.1711536547E-1
  5.47500E3  3.5861184977E-1  4.5560537558E0  2.4992243616E-3  2.4805761023E-3  3.1744939350E-1
  5.48000E3  3.5887845374E-1  4.5535225052E0  2.5057427814E-3  2.4870095424E-3  3.1778326934E-1
  5.48500E3  3.5914501249E-1  4.5509949674E0  2.5122722343E-3  2.4934537048E-3  3.1811699267E-1
  5.49000E3  3.5941152609E-1  4.5484711337E0  2.5188127291E-3  2.4999085973E-3  3.1845056317E-1
  5.49500E3  3.5967799457E-1  4.5459509952E0  2.5253642742E-3  2.5063742276E-3  3.1878398051E-1
  5.50000E3  3.5994441800E-1  4.5434345432E0  2.5319268782E-3  2.5128506034E-3  3.1911724438E-1
  5.50500E3  3.6021242018E-1  4.5409283341E0  2.5385005498E-3  2.5193378140E-3  3.1945035446E-1
  5.51000E3  3.6048239721E-1  4.5384339326E0  2.5450852975E-3  2.5258358879E-3  3.1978331043E-1
  5.51500E3  3.6075233143E-1  4.5359431620E0  2.5516811299E-3  2.5323447319E-3  3.2011611199E-1
  5.52000E3  3.6102222289E-1  4.5334560137E0  2.5582880556E-3  2.5388643538E-3  3.2044875882E-1
  5.52500E3  3.6129207164E-1  4.5309724791E0  2.5649060832E-3  2.5453947614E-3  3.2078125061E-1
  5.53000E3  3.6156187771E-1  4.5284925497E0  2.5715352212E-3  2.5519359622E-3  3.2111358706E-1
  5.53500E3  3.6183164116E-1  4.5260162171E0  2.5781754783E-3  2.5584879641E-3  3.2144576784E-1
  5.54000E3  3.6210136203E-1  4.5235434727E0  2.5848268630E-3  2.5650507748E-3  3.2177779266E-1
  5.54500E3  3.6237104037E-1  4.5210743082E0  2.5914893839E-3  2.5716244019E-3  3.2210966122E-1
  5.55000E3  3.6264067622E-1  4.5186087151E0  2.5981630496E-3  2.5782088532E-3  3.2244137320E-1
  5.55500E3  3.6291026963E-1  4.5161466851E0  2.6048478687E-3  2.5848041363E-3  3.2277292831E-1
  5.56000E3  3.6317982063E-1  4.5136882098E0  2.6115438497E-3  2.5914102591E-3  3.2310432624E-1
  5.56500E3  3.6344932928E-1  4.5112332809E0  2.6182510012E-3  2.5980272290E-3  3.2343556670E-1
  5.57000E3  3.6371879562E-1  4.5087818901E0  2.6249693318E-3  2.6046550540E-3  3.2376664938E-1
  5.57500E3  3.6398821970E-1  4.5063340291E0  2.6316988500E-3  2.6112937415E-3  3.2409757400E-1
  5.58000E3  3.6425760156E-1  4.5038896897E0  2.6384395645E-3  2.6179432994E-3  3.2442834026E-1
  5.58500E3  3.6452694124E-1  4.5014488637E0  2.6451914837E-3  2.6246037354E-3  3.2475894785E-1
  5.59000E3  3.6479623878E-1  4.4990115429E0  2.6519546164E-3  2.6312750570E-3  3.2508939650E-1
  5.59500E3  3.6506817574E-1  4.4965884681E0  2.6587289709E-3  2.6379574157E-3  3.2541968591E-1
  5.60000E3  3.6534107348E-1  4.4941728695E0  2.6655145560E-3  2.6446507305E-3  3.2574981579E-1
  5.60500E3  3.6561393140E-1  4.4917607227E0  2.6723113801E-3  2.6513549556E-3  3.2607978584E-1
  5.61000E3  3.6588674954E-1  4.4893520197E0  2.6791194519E-3  2.6580700986E-3  3.2640959580E-1
  5.61500E3  3.6615952793E-1  4.4869467524E0  2.6859387798E-3  2.6647961672E-3  3.2673924536E-1
  5.62000E3  3.6643226662E-1  4.4845449129E0  2.6927693725E-3  2.6715331692E-3  3.2706873424E-1
  5.62500E3  3.6670496565E-1  4.4821464933E0  2.6996112386E-3  2.6782811122E-3  3.2739806217E-1
  5.63000E3  3.6697762506E-1  4.4797514858E0  2.7064643865E-3  2.6850400038E-3  3.2772722886E-1
  5.63500E3  3.6725024490E-1  4.4773598823E0  2.7133288248E-3  2.6918098518E-3  3.2805623404E-1
  5.64000E3  3.6752282519E-1  4.4749716751E0  2.7202045621E-3  2.6985906637E-3  3.2838507741E-1
  5.64500E3  3.6779536599E-1  4.4725868564E0  2.7270916070E-3  2.7053824472E-3  3.2871375871E-1
  5.65000E3  3.6806786734E-1  4.4702054182E0  2.7339899680E-3  2.7121852101E-3  3.2904227766E-1
  5.65500E3  3.6834032927E-1  4.4678273530E0  2.7408996537E-3  2.7189989599E-3  3.2937063399E-1
  5.66000E3  3.6861275182E-1  4.4654526528E0  2.7478206726E-3  2.7258237043E-3  3.2969882742E-1
  5.66500E3  3.6888513504E-1  4.4630813100E0  2.7547530332E-3  2.7326594510E-3  3.3002685767E-1
  5.67000E3  3.6915747896E-1  4.4607133169E0  2.7616967442E-3  2.7395062075E-3  3.3035472449E-1
  5.67500E3  3.6942978364E-1  4.4583486658E0  2.7686518140E-3  2.7463639816E-3  3.3068242760E-1
  5.68000E3  3.6970204909E-1  4.4559873490E0  2.7756182513E-3  2.7532327809E-3  3.3100996673E-1
  5.68500E3  3.6997697560E-1  4.4536400870E0  2.7825960645E-3  2.7601127673E-3  3.3133734162E-1
  5.69000E3  3.7025288764E-1  4.4513001828E0  2.7895852622E-3  2.7670038542E-3  3.3166455200E-1
  5.69500E3  3.7052876282E-1  4.4489635616E0  2.7965858530E-3  2.7739059907E-3  3.3199159761E-1
  5.70000E3  3.7080460118E-1  4.4466302159E0  2.8035978454E-3  2.7808191846E-3  3.3231847818E-1
  5.70500E3  3.7108040276E-1  4.4443001382E0  2.8106212479E-3  2.7877434436E-3  3.3264519346E-1
  5.71000E3  3.7135616760E-1  4.4419733212E0  2.8176560691E-3  2.7946787751E-3  3.3297174318E-1
  5.71500E3  3.7163189573E-1  4.4396497574E0  2.8247023176E-3  2.8016251869E-3  3.3329812709E-1
  5.72000E3  3.7190758719E-1  4.4373294394E0  2.8317600018E-3  2.8085826866E-3  3.3362434493E-1
  5.72500E3  3.7218324201E-1  4.4350123599E0  2.8388291304E-3  2.8155512818E-3  3.3395039644E-1
  5.73000E3  3.7245886025E-1  4.4326985114E0  2.8459097118E-3  2.8225309801E-3  3.3427628137E-1
  5.73500E3  3.7273444192E-1  4.4303878868E0  2.8530017545E-3  2.8295217891E-3  3.3460199947E-1
  5.74000E3  3.7300998707E-1  4.4280804787E0  2.8601052672E-3  2.8365237165E-3  3.3492755047E-1
  5.74500E3  3.7328549573E-1  4.4257762798E0  2.8672202584E-3  2.8435367699E-3  3.3525293415E-1
  5.75000E3  3.7356096795E-1  4.4234752828E0  2.8743467365E-3  2.8505609568E-3  3.3557815023E-1
  5.75500E3  3.7383640375E-1  4.4211774807E0  2.8814847102E-3  2.8575962849E-3  3.3590319849E-1
  5.76000E3  3.7411180317E-1  4.4188828660E0  2.8886341879E-3  2.8646427618E-3  3.3622807864E-1
  5.76500E3  3.7438716626E-1  4.4165914317E0  2.8957951782E-3  2.8717003951E-3  3.3655279037E-1
  5.77000E3  3.7466249304E-1  4.4143031706E0  2.9029676896E-3  2.8787691924E-3  3.3687733341E-1
  5.77500E3  3.7493941158E-1  4.4120244844E0  2.9101517306E-3  2.8858492604E-3  3.3720170747E-1
  5.78000E3  3.7521843109E-1  4.4097573436E0  2.9173473099E-3  2.8929406389E-3  3.3752591231E-1
  5.78500E3  3.7549741670E-1  4.4074933266E0  2.9245544358E-3  2.9000432060E-3  3.3784994766E-1
  5.79000E3  3.7577636845E-1  4.4052324265E0  2.9317731169E-3  2.9071569691E-3  3.3817381325E-1
  5.79500E3  3.7605528638E-1  4.4029746362E0  2.9390033618E-3  2.9142819360E-3  3.3849750881E-1
  5.80000E3  3.7633417052E-1  4.4007199488E0  2.9462451789E-3  2.9214181141E-3  3.3882103411E-1
  5.80500E3  3.7661302089E-1  4.3984683573E0  2.9534985769E-3  2.9285655110E-3  3.3914438886E-1
  5.81000E3  3.7689183754E-1  4.3962198549E0  2.9607635641E-3  2.9357241344E-3  3.3946757282E-1
  5.81500E3  3.7717062050E-1  4.3939744346E0  2.9680401492E-3  2.9428939919E-3  3.3979058573E-1
  5.82000E3  3.7744936979E-1  4.3917320897E0  2.9753283406E-3  2.9500750909E-3  3.4011342734E-1
  5.82500E3  3.7772808546E-1  4.3894928131E0  2.9826281469E-3  2.9572674391E-3  3.4043609738E-1
  5.83000E3  3.7800676753E-1  4.3872565982E0  2.9899395765E-3  2.9644710440E-3  3.4075859562E-1
  5.83500E3  3.7828541605E-1  4.3850234380E0  2.9972626381E-3  2.9716859133E-3  3.4108092180E-1
  5.84000E3  3.7856403103E-1  4.3827933259E0  3.0045973401E-3  2.9789120545E-3  3.4140307567E-1
  5.84500E3  3.7884261252E-1  4.3805662550E0  3.0119436910E-3  2.9861494751E-3  3.4172505698E-1
  5.85000E3  3.7912116054E-1  4.3783422186E0  3.0193016993E-3  2.9933981827E-3  3.4204686549E-1
  5.85500E3  3.7939967514E-1  4.3761212100E0  3.0266713736E-3  3.0006581849E-3  3.4236850094E-1
  5.86000E3  3.7967815634E-1  4.3739032225E0  3.0340527223E-3  3.0079294892E-3  3.4268996311E-1
  5.86500E3  3.7995660417E-1  4.3716882494E0  3.0414457540E-3  3.0152121032E-3  3.4301125173E-1
  5.87000E3  3.8023823569E-1  4.3694888124E0  3.0488504772E-3  3.0225062437E-3  3.4333236658E-1
  5.87500E3  3.8052042457E-1  4.3672946428E0  3.0562669004E-3  3.0298117489E-3  3.4365330742E-1
  5.88000E3  3.8080258254E-1  4.3651034402E0  3.0636950320E-3  3.0371285883E-3  3.4397407399E-1
  5.88500E3  3.8108470964E-1  4.3629151980E0  3.0711348806E-3  3.0444567694E-3  3.4429466608E-1
  5.89000E3  3.8136680589E-1  4.3607299098E0  3.0785864548E-3  3.0517962998E-3  3.4461508343E-1
  5.89500E3  3.8164887134E-1  4.3585475691E0  3.0860497629E-3  3.0591471870E-3  3.4493532582E-1
  5.90000E3  3.8193090599E-1  4.3563681694E0  3.0935248135E-3  3.0665094386E-3  3.4525539300E-1
  5.90500E3  3.8221290989E-1  4.3541917042E0  3.1010116151E-3  3.0738830620E-3  3.4557528476E-1
  5.91000E3  3.8249488307E-1  4.3520181671E0  3.1085101763E-3  3.0812680648E-3  3.4589500086E-1
  5.91500E3  3.8277682555E-1  4.3498475518E0  3.1160205054E-3  3.0886644547E-3  3.4621454106E-1
  5.92000E3  3.8305873736E-1  4.3476798517E0  3.1235426110E-3  3.0960722390E-3  3.4653390515E-1
  5.92500E3  3.8334061853E-1  4.3455150606E0  3.1310765016E-3  3.1034914253E-3  3.4685309289E-1
  5.93000E3  3.8362246909E-1  4.3433531721E0  3.1386221857E-3  3.1109220212E-3  3.4717210405E-1
  5.93500E3  3.8390428908E-1  4.3411941798E0  3.1461796718E-3  3.1183640341E-3  3.4749093842E-1
  5.94000E3  3.8418607851E-1  4.3390380775E0  3.1537489683E-3  3.1258174716E-3  3.4780959577E-1
  5.94500E3  3.8446783743E-1  4.3368848587E0  3.1613300839E-3  3.1332823413E-3  3.4812807587E-1
  5.95000E3  3.8474956585E-1  4.3347345174E0  3.1689230268E-3  3.1407586505E-3  3.4844637851E-1
  5.95500E3  3.8503126380E-1  4.3325870472E0  3.1765278057E-3  3.1482464069E-3  3.4876450346E-1
  5.96000E3  3.8531293132E-1  4.3304424418E0  3.1841444291E-3  3.1557456179E-3  3.4908245052E-1
  5.96500E3  3.8559825724E-1  4.3283149031E0  3.1917729054E-3  3.1632565470E-3  3.4940021945E-1
  5.97000E3  3.8588371317E-1  4.3261907991E0  3.1994132431E-3  3.1707789585E-3  3.4971781005E-1
  5.97500E3  3.8616914119E-1  4.3240695144E0  3.2070654506E-3  3.1783128491E-3  3.5003522210E-1
  5.98000E3  3.8645454131E-1  4.3219510430E0  3.2147295366E-3  3.1858582263E-3  3.5035245539E-1
  5.98500E3  3.8673991357E-1  4.3198353787E0  3.2224055094E-3  3.1934150977E-3  3.5066950970E-1
  5.99000E3  3.8702525798E-1  4.3177225155E0  3.2300933776E-3  3.2009834706E-3  3.5098638483E-1
  5.99500E3  3.8731057458E-1  4.3156124473E0  3.2377931496E-3  3.2085633527E-3  3.5130308056E-1
  6.00000E3  3.8759586339E-1  4.3135051681E0  3.2455048339E-3  3.2161547514E-3  3.5161959669E-1
  6.00500E3  3.8788112444E-1  4.3114006720E0  3.2533291617E-3  3.2238565802E-3  3.5193593301E-1
  6.01000E3  3.8816635774E-1  4.3092989529E0  3.2611658168E-3  3.2315703252E-3  3.5225208931E-1
  6.01500E3  3.8845156334E-1  4.3072000048E0  3.2690148085E-3  3.2392959945E-3  3.5256806539E-1
  6.02000E3  3.8873674125E-1  4.3051038219E0  3.2768761458E-3  3.2470335962E-3  3.5288386105E-1
  6.02500E3  3.8902189150E-1  4.3030103981E0  3.2847498378E-3  3.2547831383E-3  3.5319947607E-1
  6.03000E3  3.8930701411E-1  4.3009197276E0  3.2926358938E-3  3.2625446290E-3  3.5351491027E-1
  6.03500E3  3.8959210912E-1  4.2988318045E0  3.3005343228E-3  3.2703180763E-3  3.5383016344E-1
  6.04000E3  3.8987717654E-1  4.2967466228E0  3.3084451341E-3  3.2781034883E-3  3.5414523539E-1
  6.04500E3  3.9016221640E-1  4.2946641767E0  3.3163683367E-3  3.2859008731E-3  3.5446012591E-1
  6.05000E3  3.9044722873E-1  4.2925844604E0  3.3243039397E-3  3.2937102388E-3  3.5477483481E-1
  6.05500E3  3.9073221356E-1  4.2905074680E0  3.3322519523E-3  3.3015315933E-3  3.5508936189E-1
  6.06000E3  3.9102014924E-1  4.2884445333E0  3.3402123837E-3  3.3093651650E-3  3.5540370697E-1
  6.06500E3  3.9130895720E-1  4.2863877048E0  3.3481852430E-3  3.3172108099E-3  3.5571786984E-1
  6.07000E3  3.9159774021E-1  4.2843335566E0  3.3561705392E-3  3.3250684701E-3  3.5603185033E-1
  6.07500E3  3.9188649831E-1  4.2822820829E0  3.3641682816E-3  3.3329381535E-3  3.5634564822E-1
  6.08000E3  3.9217523150E-1  4.2802332781E0  3.3721784793E-3  3.3408198683E-3  3.5665926335E-1
  6.08500E3  3.9246393981E-1  4.2781871365E0  3.3802011414E-3  3.3487136225E-3  3.5697269551E-1
  6.09000E3  3.9275262327E-1  4.2761436524E0  3.3882362770E-3  3.3566194242E-3  3.5728594453E-1
  6.09500E3  3.9304128190E-1  4.2741028203E0  3.3962838952E-3  3.3645372815E-3  3.5759901022E-1
  6.10000E3  3.9332991571E-1  4.2720646344E0  3.4043440053E-3  3.3724672023E-3  3.5791189239E-1
  6.10500E3  3.9361852474E-1  4.2700290893E0  3.4124166162E-3  3.3804091949E-3  3.5822459086E-1
  6.11000E3  3.9390710901E-1  4.2679961793E0  3.4205017372E-3  3.3883632671E-3  3.5853710545E-1
  6.11500E3  3.9419566853E-1  4.2659658989E0  3.4285993774E-3  3.3963294271E-3  3.5884943597E-1
  6.12000E3  3.9448420333E-1  4.2639382425E0  3.4367095458E-3  3.4043076829E-3  3.5916158225E-1
  6.12500E3  3.9477271343E-1  4.2619132045E0  3.4448322517E-3  3.4122980425E-3  3.5947354411E-1
  6.13000E3  3.9506119886E-1  4.2598907796E0  3.4529675041E-3  3.4203005140E-3  3.5978532138E-1
  6.13500E3  3.9534965963E-1  4.2578709621E0  3.4611153121E-3  3.4283151055E-3  3.6009691387E-1
  6.14000E3  3.9563809577E-1  4.2558537467E0  3.4692756850E-3  3.4363418249E-3  3.6040832141E-1
  6.14500E3  3.9592650731E-1  4.2538391277E0  3.4774486317E-3  3.4443806803E-3  3.6071954382E-1
  6.15000E3  3.9621489425E-1  4.2518270999E0  3.4856341615E-3  3.4524316797E-3  3.6103058095E-1
  6.15500E3  3.9650430441E-1  4.2498215996E0  3.4938322834E-3  3.4604949136E-3  3.6134143260E-1
  6.16000E3  3.9679653903E-1  4.2478293758E0  3.5020430065E-3  3.4685705330E-3  3.6165209862E-1
  6.16500E3  3.9708875166E-1  4.2458397012E0  3.5102663401E-3  3.4766583226E-3  3.6196257882E-1
  6.17000E3  3.9738094233E-1  4.2438525704E0  3.5185022931E-3  3.4847582906E-3  3.6227287306E-1
  6.17500E3  3.9767311106E-1  4.2418679782E0  3.5267508747E-3  3.4928704449E-3  3.6258298115E-1
  6.18000E3  3.9796525786E-1  4.2398859192E0  3.5350120941E-3  3.5009947936E-3  3.6289290293E-1
  6.18500E3  3.9825738275E-1  4.2379063882E0  3.5432859603E-3  3.5091313447E-3  3.6320263824E-1
  6.19000E3  3.9854948575E-1  4.2359293799E0  3.5515724824E-3  3.5172801062E-3  3.6351218691E-1
  6.19500E3  3.9884156689E-1  4.2339548891E0  3.5598716696E-3  3.5254410861E-3  3.6382154879E-1
  6.20000E3  3.9913362618E-1  4.2319829105E0  3.5681835310E-3  3.5336142924E-3  3.6413072370E-1
  6.20500E3  3.9942566363E-1  4.2300134389E0  3.5765080757E-3  3.5417997332E-3  3.6443971149E-1
  6.21000E3  3.9971767928E-1  4.2280464691E0  3.5848453127E-3  3.5499974164E-3  3.6474851200E-1
  6.21500E3  4.0000967314E-1  4.2260819960E0  3.5931952513E-3  3.5582073501E-3  3.6505712508E-1
  6.22000E3  4.0030164522E-1  4.2241200143E0  3.6015579005E-3  3.5664295423E-3  3.6536555056E-1
  6.22500E3  4.0059359556E-1  4.2221605188E0  3.6099332694E-3  3.5746640009E-3  3.6567378828E-1
  6.23000E3  4.0088552416E-1  4.2202035045E0  3.6183213671E-3  3.5829107339E-3  3.6598183811E-1
  6.23500E3  4.0117743104E-1  4.2182489663E0  3.6267222028E-3  3.5911697494E-3  3.6628969987E-1
  6.24000E3  4.0146931623E-1  4.2162968989E0  3.6351357855E-3  3.5994410554E-3  3.6659737342E-1
  6.24500E3  4.0176117974E-1  4.2143472973E0  3.6435621243E-3  3.6077246597E-3  3.6690485861E-1
  6.25000E3  4.0205302160E-1  4.2124001564E0  3.6520012284E-3  3.6160205705E-3  3.6721215528E-1
  6.25500E3  4.0234662597E-1  4.2104620959E0  3.6604531069E-3  3.6243289453E-3  3.6751926329E-1
  6.26000E3  4.0264234217E-1  4.2085343824E0  3.6689177688E-3  3.6326498231E-3  3.6782618249E-1
  6.26500E3  4.0293803935E-1  4.2066090895E0  3.6773952232E-3  3.6409830334E-3  3.6813291273E-1
  6.27000E3  4.0323371754E-1  4.2046862123E0  3.6858854793E-3  3.6493285845E-3  3.6843945387E-1
  6.27500E3  4.0352937674E-1  4.2027657458E0  3.6943885462E-3  3.6576864841E-3  3.6874580576E-1
  6.28000E3  4.0382501698E-1  4.2008476850E0  3.7029044329E-3  3.6660567404E-3  3.6905196825E-1
  6.28500E3  4.0412063827E-1  4.1989320251E0  3.7114331486E-3  3.6744393612E-3  3.6935794121E-1
  6.29000E3  4.0441624062E-1  4.1970187611E0  3.7199747023E-3  3.6828343546E-3  3.6966372449E-1
  6.29500E3  4.0471182405E-1  4.1951078881E0  3.7285291032E-3  3.6912417285E-3  3.6996931795E-1
  6.30000E3  4.0500738859E-1  4.1931994012E0  3.7370963603E-3  3.6996614909E-3  3.7027472146E-1
  6.30500E3  4.0530293423E-1  4.1912932956E0  3.7456764827E-3  3.7080936497E-3  3.7057993486E-1
  6.31000E3  4.0559846101E-1  4.1893895665E0  3.7542694796E-3  3.7165382130E-3  3.7088495803E-1
  6.31500E3  4.0589396894E-1  4.1874882089E0  3.7628753600E-3  3.7249951887E-3  3.7118979079E-1
  6.32000E3  4.0618945802E-1  4.1855892180E0  3.7714941330E-3  3.7334645847E-3  3.7149443299E-1
  6.32500E3  4.0648492829E-1  4.1836925891E0  3.7801258078E-3  3.7419464089E-3  3.7179888447E-1
  6.33000E3  4.0678037975E-1  4.1817983173E0  3.7887703933E-3  3.7504406695E-3  3.7210314509E-1
  6.33500E3  4.0707581242E-1  4.1799063978E0  3.7974278987E-3  3.7589473742E-3  3.7240721469E-1
  6.34000E3  4.0737122632E-1  4.1780168259E0  3.8060983331E-3  3.7674665310E-3  3.7271109313E-1
  6.34500E3  4.0766662147E-1  4.1761295968E0  3.8147817056E-3  3.7759981480E-3  3.7301478026E-1
  6.35000E3  4.0796199787E-1  4.1742447058E0  3.8234780252E-3  3.7845422330E-3  3.7331827592E-1
  6.35500E3  4.0825862828E-1  4.1723668120E0  3.8321873011E-3  3.7930989076E-3  3.7362157998E-1
  6.36000E3  4.0855790555E-1  4.1705009926E0  3.8409095423E-3  3.8016683058E-3  3.7392469230E-1
  6.36500E3  4.0885716677E-1  4.1686374727E0  3.8496447579E-3  3.8102501982E-3  3.7422761271E-1
  6.37000E3  4.0915641194E-1  4.1667762479E0  3.8583929570E-3  3.8188445928E-3  3.7453034110E-1
  6.37500E3  4.0945564107E-1  4.1649173135E0  3.8671541487E-3  3.8274514976E-3  3.7483287730E-1
  6.38000E3  4.0975485419E-1  4.1630606648E0  3.8759283421E-3  3.8360709204E-3  3.7513522119E-1
  6.38500E3  4.1005405130E-1  4.1612062973E0  3.8847155462E-3  3.8447028692E-3  3.7543737263E-1
  6.39000E3  4.1035323242E-1  4.1593542064E0  3.8935157701E-3  3.8533473520E-3  3.7573933147E-1
  6.39500E3  4.1065239756E-1  4.1575043876E0  3.9023290230E-3  3.8620043766E-3  3.7604109757E-1
  6.40000E3  4.1095154673E-1  4.1556568361E0  3.9111553139E-3  3.8706739510E-3  3.7634267081E-1
  6.40500E3  4.1125067996E-1  4.1538115476E0  3.9199946518E-3  3.8793560831E-3  3.7664405105E-1
  6.41000E3  4.1154979724E-1  4.1519685174E0  3.9288470459E-3  3.8880507809E-3  3.7694523815E-1
  6.41500E3  4.1184889860E-1  4.1501277411E0  3.9377125052E-3  3.8967580522E-3  3.7724623198E-1
  6.42000E3  4.1214798404E-1  4.1482892142E0  3.9465910388E-3  3.9054779049E-3  3.7754703241E-1
  6.42500E3  4.1244705359E-1  4.1464529321E0  3.9554826558E-3  3.9142103470E-3  3.7784763931E-1
  6.43000E3  4.1274610725E-1  4.1446188903E0  3.9643873653E-3  3.9229553863E-3  3.7814805255E-1
  6.43500E3  4.1304514504E-1  4.1427870844E0  3.9733051762E-3  3.9317130309E-3  3.7844827200E-1
  6.44000E3  4.1334416697E-1  4.1409575100E0  3.9822360978E-3  3.9404832885E-3  3.7874829753E-1
  6.44500E3  4.1364317305E-1  4.1391301625E0  3.9911801391E-3  3.9492661671E-3  3.7904812902E-1
  6.45000E3  4.1394216330E-1  4.1373050376E0  4.0001373091E-3  3.9580616746E-3  3.7934776634E-1
  6.45500E3  4.1424113772E-1  4.1354821308E0  4.0091076170E-3  3.9668698189E-3  3.7964720937E-1
  6.46000E3  4.1454352832E-1  4.1336738356E0  4.0180910717E-3  3.9756909349E-3  3.7994645798E-1
  6.46500E3  4.1484643266E-1  4.1318696316E0  4.0270876825E-3  3.9845247562E-3  3.8024551206E-1
  6.47000E3  4.1514932391E-1  4.1300676090E0  4.0360974582E-3  3.9933712404E-3  3.8054437147E-1
  6.47500E3  4.1545220206E-1  4.1282677634E0  4.0451204081E-3  4.0022303955E-3  3.8084303610E-1
  6.48000E3  4.1575506714E-1  4.1264700906E0  4.0541565411E-3  4.0111022294E-3  3.8114150584E-1
  6.48500E3  4.1605791915E-1  4.1246745863E0  4.0632058663E-3  4.0199867500E-3  3.8143978056E-1
  6.49000E3  4.1636075810E-1  4.1228812461E0  4.0722683929E-3  4.0288839651E-3  3.8173786014E-1
  6.49500E3  4.1666358400E-1  4.1210900659E0  4.0813441298E-3  4.0377938826E-3  3.8203574447E-1
  6.50000E3  4.1696639686E-1  4.1193010412E0  4.0904330862E-3  4.0467165105E-3  3.8233343344E-1
  6.50500E3  4.1726919670E-1  4.1175141680E0  4.0995352711E-3  4.0556518566E-3  3.8263092693E-1
  6.51000E3  4.1757198353E-1  4.1157294419E0  4.1086506935E-3  4.0645999287E-3  3.8292822482E-1
  6.51500E3  4.1787475735E-1  4.1139468588E0  4.1177793625E-3  4.0735607348E-3  3.8322532701E-1
  6.52000E3  4.1817751817E-1  4.1121664143E0  4.1269212873E-3  4.0825342828E-3  3.8352223339E-1
  6.52500E3  4.1848026601E-1  4.1103881044E0  4.1360764767E-3  4.0915205803E-3  3.8381894384E-1
  6.53000E3  4.1878300088E-1  4.1086119248E0  4.1452449400E-3  4.1005196355E-3  3.8411545826E-1
