#[MATERIAL DEFINITION FOR MC-GPU: interaction mean free path and sampling data from PENELOPE 2018]
#[MATERIAL NAME]
# AIR, DRY (NEAR SEA LEVEL)  (104)                              
#[NOMINAL DENSITY (g/cm^3)]
#   0.00120479
#[NUMBER OF DATA VALUES]
#  23002
#[MEAN FREE PATHS (cm) (ie, average distance between interactions)]
#[Energy (eV)     | Rayleigh        | Compton         | Photoelectric   | TOTAL (+pair prod) (cm) | Rayleigh: max cumul prob F^2]
  5.0000000000E+03  1.5383521825E+03  8.8215952437E+03  2.1474760156E+01  2.1128383005E+01  3.3697199412E-01
  5.0050000000E+03  1.5401633560E+03  8.8157774865E+03  2.1539441461E+01  2.1191301227E+01  3.3722102997E-01
  5.0100000000E+03  1.5419748502E+03  8.8099693695E+03  2.1604252308E+01  2.1254341681E+01  3.3746980261E-01
  5.0150000000E+03  1.5438046817E+03  8.8041708669E+03  2.1669192826E+01  2.1317507907E+01  3.3771831278E-01
  5.0200000000E+03  1.5456456294E+03  8.7983819533E+03  2.1734263142E+01  2.1380798666E+01  3.3796656118E-01
  5.0250000000E+03  1.5474869364E+03  8.7926026034E+03  2.1799463386E+01  2.1444212019E+01  3.3821454854E-01
  5.0300000000E+03  1.5493286024E+03  8.7868327918E+03  2.1864793686E+01  2.1507748069E+01  3.3846227557E-01
  5.0350000000E+03  1.5511706272E+03  8.7810724933E+03  2.1930254170E+01  2.1571406924E+01  3.3870974298E-01
  5.0400000000E+03  1.5530130104E+03  8.7753216828E+03  2.1995844967E+01  2.1635188686E+01  3.3895695148E-01
  5.0450000000E+03  1.5548557517E+03  8.7695803354E+03  2.2061566205E+01  2.1699093461E+01  3.3920390177E-01
  5.0500000000E+03  1.5566988510E+03  8.7638484260E+03  2.2127418013E+01  2.1763121353E+01  3.3945059455E-01
  5.0550000000E+03  1.5585423078E+03  8.7581259299E+03  2.2193400518E+01  2.1827272467E+01  3.3969703053E-01
  5.0600000000E+03  1.5603865254E+03  8.7524128222E+03  2.2259513850E+01  2.1891546987E+01  3.3994321040E-01
  5.0650000000E+03  1.5622318503E+03  8.7467090784E+03  2.2325758137E+01  2.1955945087E+01  3.4018913485E-01
  5.0700000000E+03  1.5640775335E+03  8.7410146739E+03  2.2392133507E+01  2.2020466724E+01  3.4043480458E-01
  5.0750000000E+03  1.5659235748E+03  8.7353295841E+03  2.2458640089E+01  2.2085112002E+01  3.4068022028E-01
  5.0800000000E+03  1.5677699738E+03  8.7296537848E+03  2.2525278011E+01  2.2149881026E+01  3.4092538263E-01
  5.0850000000E+03  1.5696167303E+03  8.7240659602E+03  2.2592047402E+01  2.2214774411E+01  3.4117029231E-01
  5.0900000000E+03  1.5714638439E+03  8.7184948302E+03  2.2658948389E+01  2.2279791805E+01  3.4141495001E-01
  5.0950000000E+03  1.5733113145E+03  8.7129327225E+03  2.2725981102E+01  2.2344933265E+01  3.4165935640E-01
  5.1000000000E+03  1.5751591417E+03  8.7073796138E+03  2.2793145668E+01  2.2410198894E+01  3.4190351217E-01
  5.1050000000E+03  1.5770073253E+03  8.7018354807E+03  2.2860442216E+01  2.2475588796E+01  3.4214741797E-01
  5.1100000000E+03  1.5788535386E+03  8.6963002999E+03  2.2927870875E+01  2.2541102601E+01  3.4239107449E-01
  5.1150000000E+03  1.5807000810E+03  8.6907740482E+03  2.2995431773E+01  2.2606740878E+01  3.4263448240E-01
  5.1200000000E+03  1.5825469758E+03  8.6852567025E+03  2.3063125038E+01  2.2672503736E+01  3.4287764235E-01
  5.1250000000E+03  1.5843942225E+03  8.6797482398E+03  2.3130950798E+01  2.2738391279E+01  3.4312055501E-01
  5.1300000000E+03  1.5862418210E+03  8.6742486371E+03  2.3198909182E+01  2.2804403610E+01  3.4336322104E-01
  5.1350000000E+03  1.5880897710E+03  8.6687578715E+03  2.3267000319E+01  2.2870540833E+01  3.4360564110E-01
  5.1400000000E+03  1.5899380722E+03  8.6632759203E+03  2.3335224337E+01  2.2936803052E+01  3.4384781584E-01
  5.1450000000E+03  1.5917867244E+03  8.6578027608E+03  2.3403581363E+01  2.3003190369E+01  3.4408974592E-01
  5.1500000000E+03  1.5936357271E+03  8.6523383704E+03  2.3472071527E+01  2.3069702890E+01  3.4433143199E-01
  5.1550000000E+03  1.5954861380E+03  8.6468827264E+03  2.3540694957E+01  2.3136340938E+01  3.4457287470E-01
  5.1600000000E+03  1.5973377949E+03  8.6414358065E+03  2.3609451780E+01  2.3203104587E+01  3.4481407467E-01
  5.1650000000E+03  1.5991898042E+03  8.6360434474E+03  2.3678342127E+01  2.3269994084E+01  3.4505503247E-01
  5.1700000000E+03  1.6010421657E+03  8.6306965620E+03  2.3747366123E+01  2.3337009475E+01  3.4529574878E-01
  5.1750000000E+03  1.6028948791E+03  8.6253581508E+03  2.3816523899E+01  2.3404150594E+01  3.4553622431E-01
  5.1800000000E+03  1.6047479441E+03  8.6200281923E+03  2.3885815583E+01  2.3471417547E+01  3.4577645974E-01
  5.1850000000E+03  1.6066013605E+03  8.6147066649E+03  2.3955241302E+01  2.3538810435E+01  3.4601645577E-01
  5.1900000000E+03  1.6084551281E+03  8.6093935471E+03  2.4024801185E+01  2.3606329362E+01  3.4625621308E-01
  5.1950000000E+03  1.6103092464E+03  8.6040888176E+03  2.4094495361E+01  2.3673974431E+01  3.4649573235E-01
  5.2000000000E+03  1.6121637058E+03  8.5987924551E+03  2.4164323958E+01  2.3741745743E+01  3.4673501429E-01
  5.2050000000E+03  1.6140173335E+03  8.5935044383E+03  2.4234287103E+01  2.3809643144E+01  3.4697405955E-01
  5.2100000000E+03  1.6158713096E+03  8.5882247462E+03  2.4304384926E+01  2.3877666994E+01  3.4721286882E-01
  5.2150000000E+03  1.6177256339E+03  8.5829533575E+03  2.4374617554E+01  2.3945817395E+01  3.4745144278E-01
  5.2200000000E+03  1.6195803061E+03  8.5776902515E+03  2.4444985116E+01  2.4014094450E+01  3.4768978210E-01
  5.2250000000E+03  1.6214353258E+03  8.5724354070E+03  2.4515487741E+01  2.4082498260E+01  3.4792788744E-01
  5.2300000000E+03  1.6232906930E+03  8.5671888032E+03  2.4586125556E+01  2.4151028929E+01  3.4816575948E-01
  5.2350000000E+03  1.6251464072E+03  8.5619504195E+03  2.4656898690E+01  2.4219686560E+01  3.4840339887E-01
  5.2400000000E+03  1.6270024682E+03  8.5567202350E+03  2.4727807271E+01  2.4288471254E+01  3.4864080629E-01
  5.2450000000E+03  1.6288588758E+03  8.5514982291E+03  2.4798851427E+01  2.4357383114E+01  3.4887798239E-01
  5.2500000000E+03  1.6307165826E+03  8.5463583759E+03  2.4870031287E+01  2.4426423060E+01  3.4911492783E-01
  5.2550000000E+03  1.6325761535E+03  8.5412318164E+03  2.4941346979E+01  2.4495590771E+01  3.4935164326E-01
  5.2600000000E+03  1.6344360735E+03  8.5361132032E+03  2.5012798631E+01  2.4564885966E+01  3.4958812933E-01
  5.2650000000E+03  1.6362963422E+03  8.5310025164E+03  2.5084386372E+01  2.4634308748E+01  3.4982438670E-01
  5.2700000000E+03  1.6381569594E+03  8.5258997363E+03  2.5156110329E+01  2.4703859219E+01  3.5006041601E-01
  5.2750000000E+03  1.6400179249E+03  8.5208048430E+03  2.5227970631E+01  2.4773537481E+01  3.5029621790E-01
  5.2800000000E+03  1.6418792383E+03  8.5157178171E+03  2.5299967407E+01  2.4843343636E+01  3.5053179303E-01
  5.2850000000E+03  1.6437408994E+03  8.5106386388E+03  2.5372100783E+01  2.4913277786E+01  3.5076714202E-01
  5.2900000000E+03  1.6456029079E+03  8.5055672887E+03  2.5444370890E+01  2.4983340032E+01  3.5100226551E-01
  5.2950000000E+03  1.6474652636E+03  8.5005037473E+03  2.5516777854E+01  2.5053530477E+01  3.5123716415E-01
  5.3000000000E+03  1.6493296469E+03  8.4954479953E+03  2.5589321805E+01  2.5123849612E+01  3.5147183855E-01
  5.3050000000E+03  1.6511951924E+03  8.4904000133E+03  2.5662002870E+01  2.5194297341E+01  3.5170628936E-01
  5.3100000000E+03  1.6530610877E+03  8.4853597821E+03  2.5734821178E+01  2.5264873578E+01  3.5194051720E-01
  5.3150000000E+03  1.6549273323E+03  8.4803272825E+03  2.5807776857E+01  2.5335578425E+01  3.5217452270E-01
  5.3200000000E+03  1.6567939261E+03  8.4753024954E+03  2.5880870034E+01  2.5406411983E+01  3.5240830647E-01
  5.3250000000E+03  1.6586608687E+03  8.4702854017E+03  2.5954100839E+01  2.5477374354E+01  3.5264186915E-01
  5.3300000000E+03  1.6605281600E+03  8.4652793567E+03  2.6027469400E+01  2.5548465669E+01  3.5287521134E-01
  5.3350000000E+03  1.6623957996E+03  8.4603535866E+03  2.6100975844E+01  2.5619686666E+01  3.5310833367E-01
  5.3400000000E+03  1.6642637873E+03  8.4554352930E+03  2.6174620300E+01  2.5691036787E+01  3.5334123675E-01
  5.3450000000E+03  1.6661321228E+03  8.4505244575E+03  2.6248402896E+01  2.5762516134E+01  3.5357392119E-01
  5.3500000000E+03  1.6680001842E+03  8.4456210619E+03  2.6322323761E+01  2.5834124658E+01  3.5380638759E-01
  5.3550000000E+03  1.6698685008E+03  8.4407250880E+03  2.6396383022E+01  2.5905862587E+01  3.5403863658E-01
  5.3600000000E+03  1.6717371635E+03  8.4358365176E+03  2.6470580808E+01  2.5977730044E+01  3.5427066875E-01
  5.3650000000E+03  1.6736061720E+03  8.4309553327E+03  2.6544917247E+01  2.6049727129E+01  3.5450248470E-01
  5.3700000000E+03  1.6754755261E+03  8.4260815152E+03  2.6619392467E+01  2.6121853944E+01  3.5473408504E-01
  5.3750000000E+03  1.6773452256E+03  8.4212150471E+03  2.6694006596E+01  2.6194110589E+01  3.5496547037E-01
  5.3800000000E+03  1.6792152702E+03  8.4163559105E+03  2.6768759762E+01  2.6266497165E+01  3.5519664127E-01
  5.3850000000E+03  1.6810856595E+03  8.4115040877E+03  2.6843652094E+01  2.6339013773E+01  3.5542759835E-01
  5.3900000000E+03  1.6829563935E+03  8.4066595608E+03  2.6918683720E+01  2.6411660513E+01  3.5565834220E-01
  5.3950000000E+03  1.6848274717E+03  8.4018223120E+03  2.6993854768E+01  2.6484437486E+01  3.5588887340E-01
  5.4000000000E+03  1.6866984781E+03  8.3969923238E+03  2.7069165366E+01  2.6557344689E+01  3.5611919255E-01
  5.4050000000E+03  1.6885698183E+03  8.3921695786E+03  2.7144615642E+01  2.6630382323E+01  3.5634930023E-01
  5.4100000000E+03  1.6904415015E+03  8.3873540587E+03  2.7220205724E+01  2.6703550491E+01  3.5657919702E-01
  5.4150000000E+03  1.6923135274E+03  8.3825457467E+03  2.7295935741E+01  2.6776849292E+01  3.5680888351E-01
  5.4200000000E+03  1.6941858959E+03  8.3778089993E+03  2.7371805821E+01  2.6850279489E+01  3.5703836027E-01
  5.4250000000E+03  1.6960586066E+03  8.3730877380E+03  2.7447816091E+01  2.6923840614E+01  3.5726762788E-01
  5.4300000000E+03  1.6979316592E+03  8.3683734831E+03  2.7523966681E+01  2.6997532682E+01  3.5749668693E-01
  5.4350000000E+03  1.6998050536E+03  8.3636662176E+03  2.7600257717E+01  2.7071355794E+01  3.5772553797E-01
  5.4400000000E+03  1.7016787895E+03  8.3589659249E+03  2.7676689329E+01  2.7145310048E+01  3.5795418158E-01
  5.4450000000E+03  1.7035528666E+03  8.3542725882E+03  2.7753261644E+01  2.7219395545E+01  3.5818261833E-01
  5.4500000000E+03  1.7054496081E+03  8.3495861909E+03  2.7829974791E+01  2.7293618102E+01  3.5841084880E-01
  5.4550000000E+03  1.7073468541E+03  8.3449067163E+03  2.7906828897E+01  2.7367972181E+01  3.5863887353E-01
  5.4600000000E+03  1.7092444696E+03  8.3402341479E+03  2.7983824091E+01  2.7442457848E+01  3.5886669310E-01
  5.4650000000E+03  1.7111424544E+03  8.3355684691E+03  2.8060960500E+01  2.7517075202E+01  3.5909430807E-01
  5.4700000000E+03  1.7130408081E+03  8.3309096636E+03  2.8138238254E+01  2.7591824342E+01  3.5932171900E-01
  5.4750000000E+03  1.7149395306E+03  8.3262577149E+03  2.8215657479E+01  2.7666705370E+01  3.5954892644E-01
  5.4800000000E+03  1.7168386215E+03  8.3216126067E+03  2.8293218304E+01  2.7741718385E+01  3.5977593095E-01
  5.4850000000E+03  1.7187380806E+03  8.3169743227E+03  2.8370920858E+01  2.7816863485E+01  3.6000273308E-01
  5.4900000000E+03  1.7206379076E+03  8.3123428467E+03  2.8448765268E+01  2.7892140772E+01  3.6022933339E-01
  5.4950000000E+03  1.7225381022E+03  8.3077181625E+03  2.8526751662E+01  2.7967550344E+01  3.6045573242E-01
  5.5000000000E+03  1.7244405881E+03  8.3031002539E+03  2.8604880169E+01  2.8043092809E+01  3.6068193072E-01
  5.5050000000E+03  1.7263436155E+03  8.2985203079E+03  2.8683578840E+01  2.8119179415E+01  3.6090792884E-01
  5.5100000000E+03  1.7282470125E+03  8.2939855717E+03  2.8762421871E+01  2.8195400911E+01  3.6113372732E-01
  5.5150000000E+03  1.7301507788E+03  8.2894574231E+03  2.8841409397E+01  2.8271756960E+01  3.6135932672E-01
  5.5200000000E+03  1.7320549142E+03  8.2849358469E+03  2.8920541548E+01  2.8348247663E+01  3.6158472764E-01
  5.5250000000E+03  1.7339594183E+03  8.2804208274E+03  2.8999818457E+01  2.8424873123E+01  3.6180993073E-01
  5.5300000000E+03  1.7358642910E+03  8.2759123493E+03  2.9079240256E+01  2.8501633444E+01  3.6203493659E-01
  5.5350000000E+03  1.7377695320E+03  8.2714103971E+03  2.9158807078E+01  2.8578528727E+01  3.6225974583E-01
  5.5400000000E+03  1.7396751409E+03  8.2669149556E+03  2.9238519054E+01  2.8655559076E+01  3.6248435905E-01
  5.5450000000E+03  1.7415811176E+03  8.2624260094E+03  2.9318376317E+01  2.8732724592E+01  3.6270877687E-01
  5.5500000000E+03  1.7434867881E+03  8.2579435433E+03  2.9398378998E+01  2.8810025193E+01  3.6293299989E-01
  5.5550000000E+03  1.7453925979E+03  8.2534675422E+03  2.9478527231E+01  2.8887461104E+01  3.6315702869E-01
  5.5600000000E+03  1.7472987735E+03  8.2489979910E+03  2.9558821148E+01  2.8965032486E+01  3.6338086389E-01
  5.5650000000E+03  1.7492053146E+03  8.2445348744E+03  2.9639260880E+01  2.9042739443E+01  3.6360450606E-01
  5.5700000000E+03  1.7511122211E+03  8.2400781776E+03  2.9719846559E+01  2.9120582076E+01  3.6382795582E-01
  5.5750000000E+03  1.7530194925E+03  8.2356278854E+03  2.9800578319E+01  2.9198560488E+01  3.6405121375E-01
  5.5800000000E+03  1.7549271287E+03  8.2311839831E+03  2.9881456290E+01  2.9276674781E+01  3.6427428043E-01
  5.5850000000E+03  1.7568351295E+03  8.2267464557E+03  2.9962480606E+01  2.9354925055E+01  3.6449715646E-01
  5.5900000000E+03  1.7587434945E+03  8.2223152883E+03  3.0043651399E+01  2.9433311413E+01  3.6471984241E-01
  5.5950000000E+03  1.7606522235E+03  8.2179391269E+03  3.0124968800E+01  2.9511834585E+01  3.6494233888E-01
  5.6000000000E+03  1.7625615589E+03  8.2135871971E+03  3.0206432942E+01  2.9590494353E+01  3.6516464644E-01
  5.6050000000E+03  1.7644715171E+03  8.2092414527E+03  3.0288043957E+01  2.9669290593E+01  3.6538676566E-01
  5.6100000000E+03  1.7663818392E+03  8.2049018795E+03  3.0369801977E+01  2.9748223334E+01  3.6560869713E-01
  5.6150000000E+03  1.7682925249E+03  8.2005684632E+03  3.0451707135E+01  2.9827292677E+01  3.6583044141E-01
  5.6200000000E+03  1.7702035740E+03  8.1962411896E+03  3.0533759562E+01  2.9906498725E+01  3.6605199909E-01
  5.6250000000E+03  1.7721149862E+03  8.1919200446E+03  3.0615959392E+01  2.9985841577E+01  3.6627337072E-01
  5.6300000000E+03  1.7740267612E+03  8.1876050140E+03  3.0698306755E+01  3.0065321336E+01  3.6649455689E-01
  5.6350000000E+03  1.7759388989E+03  8.1832960838E+03  3.0780801784E+01  3.0144938103E+01  3.6671555814E-01
  5.6400000000E+03  1.7778513989E+03  8.1789932399E+03  3.0863444611E+01  3.0224691979E+01  3.6693637506E-01
  5.6450000000E+03  1.7797642609E+03  8.1746964683E+03  3.0946235369E+01  3.0304583066E+01  3.6715700819E-01
  5.6500000000E+03  1.7816774926E+03  8.1704057552E+03  3.1029174190E+01  3.0384611465E+01  3.6737745810E-01
  5.6550000000E+03  1.7835911393E+03  8.1661210865E+03  3.1112261205E+01  3.0464777292E+01  3.6759772534E-01
  5.6600000000E+03  1.7855051475E+03  8.1618424486E+03  3.1195496547E+01  3.0545080633E+01  3.6781781048E-01
  5.6650000000E+03  1.7874195168E+03  8.1575698275E+03  3.1278880349E+01  3.0625521587E+01  3.6803771406E-01
  5.6700000000E+03  1.7893342471E+03  8.1533032096E+03  3.1362412741E+01  3.0706100256E+01  3.6825743664E-01
  5.6750000000E+03  1.7912493380E+03  8.1490425810E+03  3.1446093857E+01  3.0786816741E+01  3.6847697877E-01
  5.6800000000E+03  1.7931647893E+03  8.1447879282E+03  3.1529923829E+01  3.0867671142E+01  3.6869634100E-01
  5.6850000000E+03  1.7950806008E+03  8.1405855564E+03  3.1613902789E+01  3.0948664229E+01  3.6891552386E-01
  5.6900000000E+03  1.7969967722E+03  8.1364064045E+03  3.1698030868E+01  3.1029795692E+01  3.6913452791E-01
  5.6950000000E+03  1.7989133033E+03  8.1322330659E+03  3.1782308199E+01  3.1111065383E+01  3.6935335369E-01
  5.7000000000E+03  1.8008301938E+03  8.1280655275E+03  3.1866734915E+01  3.1192473402E+01  3.6957200174E-01
  5.7050000000E+03  1.8027461406E+03  8.1239037762E+03  3.1951311147E+01  3.1274019457E+01  3.6979047260E-01
  5.7100000000E+03  1.8046618085E+03  8.1197477989E+03  3.2036037028E+01  3.1355703845E+01  3.7000876680E-01
  5.7150000000E+03  1.8065778327E+03  8.1155975824E+03  3.2120912689E+01  3.1437526858E+01  3.7022688488E-01
  5.7200000000E+03  1.8084942128E+03  8.1114531139E+03  3.2205938263E+01  3.1519488595E+01  3.7044482738E-01
  5.7250000000E+03  1.8104109487E+03  8.1073143803E+03  3.2291113882E+01  3.1601589157E+01  3.7066259482E-01
  5.7300000000E+03  1.8123280401E+03  8.1031813687E+03  3.2376439678E+01  3.1683828643E+01  3.7088018773E-01
  5.7350000000E+03  1.8142454868E+03  8.0990540662E+03  3.2461915783E+01  3.1766207154E+01  3.7109760664E-01
  5.7400000000E+03  1.8161632886E+03  8.0949324600E+03  3.2547542330E+01  3.1848724789E+01  3.7131485208E-01
  5.7450000000E+03  1.8180814451E+03  8.0908165372E+03  3.2633319450E+01  3.1931381647E+01  3.7153192458E-01
  5.7500000000E+03  1.8199999562E+03  8.0867062850E+03  3.2719247276E+01  3.2014177830E+01  3.7174882465E-01
  5.7550000000E+03  1.8219199420E+03  8.0826016908E+03  3.2805325940E+01  3.2097113784E+01  3.7196555281E-01
  5.7600000000E+03  1.8238485046E+03  8.0785027417E+03  3.2891555574E+01  3.2180191823E+01  3.7218210959E-01
  5.7650000000E+03  1.8257774326E+03  8.0744094253E+03  3.2977936309E+01  3.2263409505E+01  3.7239849549E-01
  5.7700000000E+03  1.8277067257E+03  8.0703217289E+03  3.3064468279E+01  3.2346766931E+01  3.7261471105E-01
  5.7750000000E+03  1.8296363838E+03  8.0662660938E+03  3.3151151615E+01  3.2430264628E+01  3.7283075676E-01
  5.7800000000E+03  1.8315664066E+03  8.0622503669E+03  3.3237986450E+01  3.2513902830E+01  3.7304663315E-01
  5.7850000000E+03  1.8334967938E+03  8.0582401089E+03  3.3324972915E+01  3.2597681084E+01  3.7326234072E-01
  5.7900000000E+03  1.8354275452E+03  8.0542353077E+03  3.3412111143E+01  3.2681599489E+01  3.7347787999E-01
  5.7950000000E+03  1.8373586605E+03  8.0502359511E+03  3.3499401265E+01  3.2765658145E+01  3.7369325145E-01
  5.8000000000E+03  1.8392901396E+03  8.0462420270E+03  3.3586843415E+01  3.2849857150E+01  3.7390845561E-01
  5.8050000000E+03  1.8412219820E+03  8.0422535234E+03  3.3674437724E+01  3.2934196604E+01  3.7412349299E-01
  5.8100000000E+03  1.8431734790E+03  8.0382704282E+03  3.3762184323E+01  3.3018682797E+01  3.7433836407E-01
  5.8150000000E+03  1.8451469568E+03  8.0342927296E+03  3.3850083346E+01  3.3103316632E+01  3.7455306937E-01
  5.8200000000E+03  1.8471208487E+03  8.0303204155E+03  3.3938134925E+01  3.3188091308E+01  3.7476760937E-01
  5.8250000000E+03  1.8490951545E+03  8.0263534740E+03  3.4026339191E+01  3.3273006925E+01  3.7498198459E-01
  5.8300000000E+03  1.8510698738E+03  8.0223918933E+03  3.4114696276E+01  3.3358063581E+01  3.7519619550E-01
  5.8350000000E+03  1.8530450065E+03  8.0184356616E+03  3.4203206313E+01  3.3443261376E+01  3.7541024261E-01
  5.8400000000E+03  1.8550205522E+03  8.0144847670E+03  3.4291869435E+01  3.3528600409E+01  3.7562412641E-01
  5.8450000000E+03  1.8569965107E+03  8.0105391977E+03  3.4380685772E+01  3.3614080778E+01  3.7583784739E-01
  5.8500000000E+03  1.8589728817E+03  8.0065989421E+03  3.4469655457E+01  3.3699702583E+01  3.7605140602E-01
  5.8550000000E+03  1.8609496649E+03  8.0026639885E+03  3.4558778622E+01  3.3785465923E+01  3.7626480262E-01
  5.8600000000E+03  1.8629268601E+03  7.9987343252E+03  3.4648055399E+01  3.3871370895E+01  3.7647803771E-01
  5.8650000000E+03  1.8649045449E+03  7.9948099406E+03  3.4737485921E+01  3.3957417625E+01  3.7669111182E-01
  5.8700000000E+03  1.8668826710E+03  7.9909400594E+03  3.4827070319E+01  3.4043607089E+01  3.7690402553E-01
  5.8750000000E+03  1.8688612084E+03  7.9870841735E+03  3.4916808726E+01  3.4129938652E+01  3.7711677936E-01
  5.8800000000E+03  1.8708401568E+03  7.9832334261E+03  3.5006701273E+01  3.4216412253E+01  3.7732937388E-01
  5.8850000000E+03  1.8728195160E+03  7.9793878059E+03  3.5096748093E+01  3.4303027991E+01  3.7754180962E-01
  5.8900000000E+03  1.8747992858E+03  7.9755473017E+03  3.5186949318E+01  3.4389785965E+01  3.7775408713E-01
  5.8950000000E+03  1.8767794658E+03  7.9717119024E+03  3.5277305080E+01  3.4476686271E+01  3.7796620695E-01
  5.9000000000E+03  1.8787600558E+03  7.9678815969E+03  3.5367815510E+01  3.4563729010E+01  3.7817816961E-01
  5.9050000000E+03  1.8807410555E+03  7.9640563742E+03  3.5458480742E+01  3.4650914278E+01  3.7838997567E-01
  5.9100000000E+03  1.8827224647E+03  7.9602362231E+03  3.5549300907E+01  3.4738242174E+01  3.7860162564E-01
  5.9150000000E+03  1.8847042831E+03  7.9564211327E+03  3.5640276137E+01  3.4825712796E+01  3.7881312006E-01
  5.9200000000E+03  1.8866868429E+03  7.9526110920E+03  3.5731406564E+01  3.4913326355E+01  3.7902445947E-01
  5.9250000000E+03  1.8886698589E+03  7.9488060900E+03  3.5822692321E+01  3.5001082854E+01  3.7923564440E-01
  5.9300000000E+03  1.8906532838E+03  7.9450061160E+03  3.5914133540E+01  3.5088982372E+01  3.7944667538E-01
  5.9350000000E+03  1.8926371174E+03  7.9412111589E+03  3.6005730351E+01  3.5177025009E+01  3.7965755292E-01
  5.9400000000E+03  1.8946213593E+03  7.9374212079E+03  3.6097482889E+01  3.5265210862E+01  3.7986827756E-01
  5.9450000000E+03  1.8966060093E+03  7.9336362523E+03  3.6189391284E+01  3.5353540028E+01  3.8007884983E-01
  5.9500000000E+03  1.8985910672E+03  7.9298562812E+03  3.6281455669E+01  3.5442012605E+01  3.8028927023E-01
  5.9550000000E+03  1.9005765327E+03  7.9260812839E+03  3.6373676175E+01  3.5530628690E+01  3.8049953930E-01
  5.9600000000E+03  1.9025624056E+03  7.9223112497E+03  3.6466052936E+01  3.5619388381E+01  3.8070965754E-01
  5.9650000000E+03  1.9045486855E+03  7.9185994765E+03  3.6558586082E+01  3.5708292860E+01  3.8091962548E-01
  5.9700000000E+03  1.9065353723E+03  7.9148946732E+03  3.6651275747E+01  3.5797341192E+01  3.8112944363E-01
  5.9750000000E+03  1.9085232667E+03  7.9111947025E+03  3.6744122062E+01  3.5886533717E+01  3.8133911251E-01
  5.9800000000E+03  1.9105116288E+03  7.9074995543E+03  3.6837125158E+01  3.5975870272E+01  3.8154863262E-01
  5.9850000000E+03  1.9125003980E+03  7.9038092181E+03  3.6930285169E+01  3.6065350931E+01  3.8175800448E-01
  5.9900000000E+03  1.9144895741E+03  7.9001236836E+03  3.7023602226E+01  3.6154975793E+01  3.8196722859E-01
  5.9950000000E+03  1.9164791568E+03  7.8964429407E+03  3.7117076462E+01  3.6244744955E+01  3.8217630546E-01
  6.0000000000E+03  1.9184691458E+03  7.8927669792E+03  3.7210708008E+01  3.6334658512E+01  3.8238523559E-01
  6.0050000000E+03  1.9204595410E+03  7.8890957887E+03  3.7305174464E+01  3.6425362453E+01  3.8259401950E-01
  6.0100000000E+03  1.9224503420E+03  7.8854293592E+03  3.7399801397E+01  3.6516213641E+01  3.8280265767E-01
  6.0150000000E+03  1.9244415486E+03  7.8817676806E+03  3.7494588944E+01  3.6607212177E+01  3.8301115062E-01
  6.0200000000E+03  1.9264331605E+03  7.8781107427E+03  3.7589537242E+01  3.6698358163E+01  3.8321949883E-01
  6.0250000000E+03  1.9284251775E+03  7.8744585354E+03  3.7684646430E+01  3.6789651699E+01  3.8342770281E-01
  6.0300000000E+03  1.9304189510E+03  7.8708110489E+03  3.7779916643E+01  3.6881093379E+01  3.8363576305E-01
  6.0350000000E+03  1.9324133152E+03  7.8671682729E+03  3.7875348022E+01  3.6972682883E+01  3.8384368004E-01
  6.0400000000E+03  1.9344080856E+03  7.8635301976E+03  3.7970940702E+01  3.7064420243E+01  3.8405145429E-01
  6.0450000000E+03  1.9364032620E+03  7.8598968130E+03  3.8066694821E+01  3.7156305561E+01  3.8425908627E-01
  6.0500000000E+03  1.9383988441E+03  7.8562681092E+03  3.8162610518E+01  3.7248338937E+01  3.8446657648E-01
  6.0550000000E+03  1.9403948316E+03  7.8526440762E+03  3.8258687930E+01  3.7340520471E+01  3.8467392541E-01
  6.0600000000E+03  1.9423912243E+03  7.8490656434E+03  3.8354927194E+01  3.7432851196E+01  3.8488113354E-01
  6.0650000000E+03  1.9443880221E+03  7.8455039071E+03  3.8451328448E+01  3.7525330566E+01  3.8508820135E-01
  6.0700000000E+03  1.9463852245E+03  7.8419467201E+03  3.8547891829E+01  3.7617958409E+01  3.8529512934E-01
  6.0750000000E+03  1.9483828313E+03  7.8383940730E+03  3.8644617476E+01  3.7710734823E+01  3.8550191798E-01
  6.0800000000E+03  1.9503808424E+03  7.8348459560E+03  3.8741505526E+01  3.7803659910E+01  3.8570856775E-01
  6.0850000000E+03  1.9523923315E+03  7.8313023599E+03  3.8838556116E+01  3.7896738695E+01  3.8591507914E-01
  6.0900000000E+03  1.9544090791E+03  7.8277632750E+03  3.8935769384E+01  3.7989968215E+01  3.8612145261E-01
  6.0950000000E+03  1.9564262522E+03  7.8242286920E+03  3.9033145468E+01  3.8083346755E+01  3.8632768865E-01
  6.1000000000E+03  1.9584438507E+03  7.8206986014E+03  3.9130684506E+01  3.8176874414E+01  3.8653378773E-01
  6.1050000000E+03  1.9604618741E+03  7.8171729939E+03  3.9228386634E+01  3.8270551294E+01  3.8673975033E-01
  6.1100000000E+03  1.9624803224E+03  7.8136518601E+03  3.9326251991E+01  3.8364377494E+01  3.8694557691E-01
  6.1150000000E+03  1.9644991951E+03  7.8101351907E+03  3.9424280715E+01  3.8458353113E+01  3.8715126795E-01
  6.1200000000E+03  1.9665184921E+03  7.8066229763E+03  3.9522472942E+01  3.8552478252E+01  3.8735682391E-01
  6.1250000000E+03  1.9685382131E+03  7.8031152078E+03  3.9620828811E+01  3.8646753010E+01  3.8756224527E-01
  6.1300000000E+03  1.9705583579E+03  7.7996118757E+03  3.9719348459E+01  3.8741177488E+01  3.8776753249E-01
  6.1350000000E+03  1.9725789262E+03  7.7961129710E+03  3.9818032024E+01  3.8835751784E+01  3.8797268603E-01
  6.1400000000E+03  1.9745996117E+03  7.7926184844E+03  3.9916879643E+01  3.8930475879E+01  3.8817770636E-01
  6.1450000000E+03  1.9766203827E+03  7.7891284068E+03  4.0015891454E+01  3.9025349860E+01  3.8838259394E-01
  6.1500000000E+03  1.9786415757E+03  7.7856427290E+03  4.0115067595E+01  3.9120373956E+01  3.8858734924E-01
  6.1550000000E+03  1.9806631904E+03  7.7821753106E+03  4.0214408204E+01  3.9215548618E+01  3.8879197270E-01
  6.1600000000E+03  1.9826852265E+03  7.7787492739E+03  4.0313913417E+01  3.9310874544E+01  3.8899646480E-01
  6.1650000000E+03  1.9847076837E+03  7.7753275234E+03  4.0413583373E+01  3.9406350895E+01  3.8920082599E-01
  6.1700000000E+03  1.9867305619E+03  7.7719100502E+03  4.0513418210E+01  3.9501977771E+01  3.8940505711E-01
  6.1750000000E+03  1.9887538607E+03  7.7684968456E+03  4.0613418064E+01  3.9597755271E+01  3.8960915886E-01
  6.1800000000E+03  1.9907775799E+03  7.7650879008E+03  4.0713583074E+01  3.9693683493E+01  3.8981313168E-01
  6.1850000000E+03  1.9928017193E+03  7.7616832069E+03  4.0813913378E+01  3.9789762538E+01  3.9001697606E-01
  6.1900000000E+03  1.9948262786E+03  7.7582827554E+03  4.0914409112E+01  3.9885992503E+01  3.9022069246E-01
  6.1950000000E+03  1.9968512493E+03  7.7548865374E+03  4.1015070414E+01  3.9982373484E+01  3.9042428134E-01
  6.2000000000E+03  1.9988765786E+03  7.7514945444E+03  4.1115897423E+01  4.0078905559E+01  3.9062774315E-01
  6.2050000000E+03  2.0009023269E+03  7.7481067676E+03  4.1216890276E+01  4.0175588851E+01  3.9083107837E-01
  6.2100000000E+03  2.0029284940E+03  7.7447231984E+03  4.1318049110E+01  4.0272423458E+01  3.9103428744E-01
  6.2150000000E+03  2.0049550796E+03  7.7413438282E+03  4.1419374064E+01  4.0369409478E+01  3.9123737083E-01
  6.2200000000E+03  2.0069820836E+03  7.7379686484E+03  4.1520865274E+01  4.0466547010E+01  3.9144032899E-01
  6.2250000000E+03  2.0090095056E+03  7.7345976505E+03  4.1622522878E+01  4.0563836153E+01  3.9164316238E-01
  6.2300000000E+03  2.0110373454E+03  7.7312308259E+03  4.1724347015E+01  4.0661277004E+01  3.9184587145E-01
  6.2350000000E+03  2.0130656028E+03  7.7278681662E+03  4.1826337822E+01  4.0758869661E+01  3.9204845665E-01
  6.2400000000E+03  2.0150942775E+03  7.7245096627E+03  4.1928495436E+01  4.0856614224E+01  3.9225091843E-01
  6.2450000000E+03  2.0171233692E+03  7.7211553072E+03  4.2030819995E+01  4.0954510789E+01  3.9245325725E-01
  6.2500000000E+03  2.0191528778E+03  7.7178050910E+03  4.2133311637E+01  4.1052559455E+01  3.9265547354E-01
  6.2550000000E+03  2.0211829213E+03  7.7144814359E+03  4.2235970499E+01  4.1150761007E+01  3.9285756777E-01
  6.2600000000E+03  2.0232134438E+03  7.7111882491E+03  4.2338796720E+01  4.1249115643E+01  3.9305954037E-01
  6.2650000000E+03  2.0252443826E+03  7.7078990956E+03  4.2441790436E+01  4.1347622687E+01  3.9326139178E-01
  6.2700000000E+03  2.0272757375E+03  7.7046139675E+03  4.2544951786E+01  4.1446282237E+01  3.9346312246E-01
  6.2750000000E+03  2.0293075082E+03  7.7013328564E+03  4.2648280907E+01  4.1545094390E+01  3.9366473284E-01
  6.2800000000E+03  2.0313396944E+03  7.6980557544E+03  4.2751777936E+01  4.1644059244E+01  3.9386622336E-01
  6.2850000000E+03  2.0333722959E+03  7.6947826534E+03  4.2855443012E+01  4.1743176896E+01  3.9406759447E-01
  6.2900000000E+03  2.0354053125E+03  7.6915135452E+03  4.2959276272E+01  4.1842447444E+01  3.9426884660E-01
  6.2950000000E+03  2.0374387439E+03  7.6882484218E+03  4.3063277854E+01  4.1941870986E+01  3.9446998019E-01
  6.3000000000E+03  2.0394725899E+03  7.6849872753E+03  4.3167447896E+01  4.2041447617E+01  3.9467099567E-01
  6.3050000000E+03  2.0415068501E+03  7.6817300976E+03  4.3271786534E+01  4.2141177437E+01  3.9487189349E-01
  6.3100000000E+03  2.0435414867E+03  7.6784768808E+03  4.3376293907E+01  4.2241060525E+01  3.9507267406E-01
  6.3150000000E+03  2.0455761354E+03  7.6752276169E+03  4.3480970153E+01  4.2341096822E+01  3.9527333784E-01
  6.3200000000E+03  2.0476111971E+03  7.6719822979E+03  4.3585815409E+01  4.2441286597E+01  3.9547388524E-01
  6.3250000000E+03  2.0496466717E+03  7.6687409160E+03  4.3690829813E+01  4.2541629946E+01  3.9567431669E-01
  6.3300000000E+03  2.0516825588E+03  7.6655034634E+03  4.3796013502E+01  4.2642126966E+01  3.9587463263E-01
  6.3350000000E+03  2.0537188583E+03  7.6622699320E+03  4.3901366615E+01  4.2742777754E+01  3.9607483349E-01
  6.3400000000E+03  2.0557555698E+03  7.6590403142E+03  4.4006889288E+01  4.2843582406E+01  3.9627491969E-01
  6.3450000000E+03  2.0577926933E+03  7.6558146020E+03  4.4112581660E+01  4.2944541019E+01  3.9647489165E-01
  6.3500000000E+03  2.0598302283E+03  7.6525927877E+03  4.4218443869E+01  4.3045653690E+01  3.9667474980E-01
