#[MATERIAL DEFINITION FOR MC-GPU: interaction mean free path and sampling data from PENELOPE 2006]
#[MATERIAL NAME]
# Muscle skeletal (Woodard et al, Bri. Jour. Rad. 59 (1986))    
#[NOMINAL DENSITY (g/cm^3)]
#   1.05000000
#[NUMBER OF DATA VALUES]
#  23002
#[MEAN FREE PATHS (cm)]
#[Energy (eV)     | Rayleigh        | Compton         | Photoelectric   | TOTAL (+pair prod) (cm) | Rayleigh: max cumul prob F^2]
  5.00000E+03  1.8014618592E+00  8.0406855059E+00  2.3024755020E-02  2.2670088696E-02  3.4364831379E-01
  5.00500E+03  1.8035017548E+00  8.0357340687E+00  2.3093971524E-02  2.2737471116E-02  3.4390588590E-01
  5.01000E+03  1.8055419199E+00  8.0307906200E+00  2.3163326389E-02  2.2804984132E-02  3.4416316775E-01
  5.01500E+03  1.8075823543E+00  8.0258551390E+00  2.3232819751E-02  2.2872627854E-02  3.4442016006E-01
  5.02000E+03  1.8096230579E+00  8.0209276049E+00  2.3302451749E-02  2.2940402395E-02  3.4467686354E-01
  5.02500E+03  1.8116640304E+00  8.0160079971E+00  2.3372222518E-02  2.3008307864E-02  3.4493327891E-01
  5.03000E+03  1.8137052715E+00  8.0110962949E+00  2.3442132196E-02  2.3076344374E-02  3.4518940687E-01
  5.03500E+03  1.8157467811E+00  8.0061924777E+00  2.3512180920E-02  2.3144512035E-02  3.4544524812E-01
  5.04000E+03  1.8177885588E+00  8.0012965252E+00  2.3582368827E-02  2.3212810958E-02  3.4570080338E-01
  5.04500E+03  1.8198306046E+00  7.9964084169E+00  2.3652696055E-02  2.3281241255E-02  3.4595607333E-01
  5.05000E+03  1.8218729180E+00  7.9915281325E+00  2.3723162740E-02  2.3349803035E-02  3.4621105870E-01
  5.05500E+03  1.8239477230E+00  7.9868492675E+00  2.3793769019E-02  2.3418503387E-02  3.4646576015E-01
  5.06000E+03  1.8260268177E+00  7.9822016457E+00  2.3864515030E-02  2.3487336375E-02  3.4672017840E-01
  5.06500E+03  1.8281062254E+00  7.9775613146E+00  2.3935400910E-02  2.3556301253E-02  3.4697431413E-01
  5.07000E+03  1.8301859459E+00  7.9729282556E+00  2.4006426795E-02  2.3625398131E-02  3.4722816802E-01
  5.07500E+03  1.8322659788E+00  7.9683024502E+00  2.4077592823E-02  2.3694627120E-02  3.4748174077E-01
  5.08000E+03  1.8343463240E+00  7.9636838798E+00  2.4148899131E-02  2.3763988332E-02  3.4773503305E-01
  5.08500E+03  1.8364269811E+00  7.9590725261E+00  2.4220345856E-02  2.3833481877E-02  3.4798804556E-01
  5.09000E+03  1.8385079498E+00  7.9544683707E+00  2.4291933135E-02  2.3903107866E-02  3.4824077895E-01
  5.09500E+03  1.8405892300E+00  7.9498713954E+00  2.4363661105E-02  2.3972866409E-02  3.4849323392E-01
  5.10000E+03  1.8426708214E+00  7.9452815818E+00  2.4435529903E-02  2.4042757617E-02  3.4874541112E-01
  5.10500E+03  1.8447527237E+00  7.9406989118E+00  2.4507539666E-02  2.4112781601E-02  3.4899731124E-01
  5.11000E+03  1.8468349367E+00  7.9361233674E+00  2.4579690532E-02  2.4182938470E-02  3.4924893494E-01
  5.11500E+03  1.8489174600E+00  7.9315549304E+00  2.4651982637E-02  2.4253228336E-02  3.4950028289E-01
  5.12000E+03  1.8510002935E+00  7.9269935830E+00  2.4724416118E-02  2.4323651308E-02  3.4975135574E-01
  5.12500E+03  1.8530834369E+00  7.9224393071E+00  2.4796991112E-02  2.4394207497E-02  3.5000215417E-01
  5.13000E+03  1.8551668899E+00  7.9178920851E+00  2.4869707757E-02  2.4464897013E-02  3.5025267882E-01
  5.13500E+03  1.8572506523E+00  7.9133518990E+00  2.4942566190E-02  2.4535719967E-02  3.5050293035E-01
  5.14000E+03  1.8593347238E+00  7.9088187311E+00  2.5015566547E-02  2.4606676467E-02  3.5075290942E-01
  5.14500E+03  1.8614191041E+00  7.9042925639E+00  2.5088708965E-02  2.4677766624E-02  3.5100261667E-01
  5.15000E+03  1.8635037931E+00  7.8997733797E+00  2.5161993582E-02  2.4748990548E-02  3.5125205276E-01
  5.15500E+03  1.8655887904E+00  7.8952611609E+00  2.5235420535E-02  2.4820348349E-02  3.5150121833E-01
  5.16000E+03  1.8676740958E+00  7.8907558901E+00  2.5308989960E-02  2.4891840137E-02  3.5175011402E-01
  5.16500E+03  1.8697597090E+00  7.8862575498E+00  2.5382701995E-02  2.4963466021E-02  3.5199874049E-01
  5.17000E+03  1.8718456299E+00  7.8817661228E+00  2.5456556776E-02  2.5035226110E-02  3.5224709835E-01
  5.17500E+03  1.8739318581E+00  7.8772815917E+00  2.5530554442E-02  2.5107120515E-02  3.5249518826E-01
  5.18000E+03  1.8760183934E+00  7.8728039393E+00  2.5604695127E-02  2.5179149345E-02  3.5274301085E-01
  5.18500E+03  1.8781052355E+00  7.8683331484E+00  2.5678978971E-02  2.5251312709E-02  3.5299056675E-01
  5.19000E+03  1.8801923842E+00  7.8638692019E+00  2.5753406109E-02  2.5323610717E-02  3.5323785658E-01
  5.19500E+03  1.8822798392E+00  7.8594120827E+00  2.5827976679E-02  2.5396043478E-02  3.5348488098E-01
  5.20000E+03  1.8843676004E+00  7.8549617738E+00  2.5902690818E-02  2.5468611101E-02  3.5373164058E-01
  5.20500E+03  1.8864556673E+00  7.8505182584E+00  2.5977548662E-02  2.5541313695E-02  3.5397813599E-01
  5.21000E+03  1.8885440399E+00  7.8460815194E+00  2.6052550349E-02  2.5614151370E-02  3.5422436784E-01
  5.21500E+03  1.8906327178E+00  7.8416515402E+00  2.6127696015E-02  2.5687124234E-02  3.5447033674E-01
  5.22000E+03  1.8927217008E+00  7.8372283038E+00  2.6202985798E-02  2.5760232396E-02  3.5471604332E-01
  5.22500E+03  1.8948109886E+00  7.8328117937E+00  2.6278419835E-02  2.5833475965E-02  3.5496148818E-01
  5.23000E+03  1.8969005810E+00  7.8284019932E+00  2.6353998262E-02  2.5906855051E-02  3.5520667194E-01
  5.23500E+03  1.8989904778E+00  7.8239988857E+00  2.6429721217E-02  2.5980369761E-02  3.5545159521E-01
  5.24000E+03  1.9010806787E+00  7.8196024545E+00  2.6505588837E-02  2.6054020204E-02  3.5569625860E-01
  5.24500E+03  1.9031711834E+00  7.8152126834E+00  2.6581601258E-02  2.6127806490E-02  3.5594066272E-01
  5.25000E+03  1.9052619918E+00  7.8108295558E+00  2.6657758617E-02  2.6201728725E-02  3.5618480816E-01
  5.25500E+03  1.9073733262E+00  7.8065714738E+00  2.6734061052E-02  2.6275792199E-02  3.5642869552E-01
  5.26000E+03  1.9094984970E+00  7.8023987287E+00  2.6810508699E-02  2.6349995360E-02  3.5667232542E-01
  5.26500E+03  1.9116240132E+00  7.7982321753E+00  2.6887101696E-02  2.6424334875E-02  3.5691569844E-01
  5.27000E+03  1.9137498744E+00  7.7940717988E+00  2.6963840178E-02  2.6498810852E-02  3.5715881519E-01
  5.27500E+03  1.9158760804E+00  7.7899175840E+00  2.7040724284E-02  2.6573423400E-02  3.5740167624E-01
  5.28000E+03  1.9180026308E+00  7.7857695160E+00  2.7117754151E-02  2.6648172627E-02  3.5764428221E-01
  5.28500E+03  1.9201295255E+00  7.7816275800E+00  2.7194929914E-02  2.6723058642E-02  3.5788663366E-01
  5.29000E+03  1.9222567640E+00  7.7774917610E+00  2.7272251711E-02  2.6798081553E-02  3.5812873120E-01
  5.29500E+03  1.9243843463E+00  7.7733620443E+00  2.7349719680E-02  2.6873241469E-02  3.5837057541E-01
  5.30000E+03  1.9265122720E+00  7.7692384150E+00  2.7427333956E-02  2.6948538497E-02  3.5861216686E-01
  5.30500E+03  1.9286405408E+00  7.7651208586E+00  2.7505094677E-02  2.7023972747E-02  3.5885350615E-01
  5.31000E+03  1.9307691525E+00  7.7610093603E+00  2.7583001980E-02  2.7099544325E-02  3.5909459384E-01
  5.31500E+03  1.9328981068E+00  7.7569039056E+00  2.7661056001E-02  2.7175253341E-02  3.5933543052E-01
  5.32000E+03  1.9350274034E+00  7.7528044799E+00  2.7739256879E-02  2.7251099902E-02  3.5957601677E-01
  5.32500E+03  1.9371570421E+00  7.7487110686E+00  2.7817604748E-02  2.7327084116E-02  3.5981635318E-01
  5.33000E+03  1.9392870225E+00  7.7446236573E+00  2.7896099747E-02  2.7403206090E-02  3.6005644050E-01
  5.33500E+03  1.9414173446E+00  7.7405422317E+00  2.7974742013E-02  2.7479465933E-02  3.6029627939E-01
  5.34000E+03  1.9435480078E+00  7.7364667773E+00  2.8053531682E-02  2.7555863753E-02  3.6053587049E-01
  5.34500E+03  1.9456790121E+00  7.7323972798E+00  2.8132468891E-02  2.7632399656E-02  3.6077521446E-01
  5.35000E+03  1.9478103572E+00  7.7283337250E+00  2.8211553777E-02  2.7709073751E-02  3.6101431195E-01
  5.35500E+03  1.9499420427E+00  7.7242760987E+00  2.8290786476E-02  2.7785886144E-02  3.6125316361E-01
  5.36000E+03  1.9520740684E+00  7.7202243866E+00  2.8370167127E-02  2.7862836944E-02  3.6149177007E-01
  5.36500E+03  1.9542064340E+00  7.7161785746E+00  2.8449695866E-02  2.7939926257E-02  3.6173013198E-01
  5.37000E+03  1.9563391394E+00  7.7121386487E+00  2.8529372829E-02  2.8017154192E-02  3.6196824997E-01
  5.37500E+03  1.9584721842E+00  7.7081045949E+00  2.8609198153E-02  2.8094520854E-02  3.6220612468E-01
  5.38000E+03  1.9606055681E+00  7.7040763991E+00  2.8689171976E-02  2.8172026351E-02  3.6244375675E-01
  5.38500E+03  1.9627392910E+00  7.7000540474E+00  2.8769294434E-02  2.8249670791E-02  3.6268114680E-01
  5.39000E+03  1.9648733524E+00  7.6960375259E+00  2.8849565664E-02  2.8327454280E-02  3.6291829547E-01
  5.39500E+03  1.9670077523E+00  7.6920268208E+00  2.8929985804E-02  2.8405376925E-02  3.6315520338E-01
  5.40000E+03  1.9691424903E+00  7.6880219183E+00  2.9010554989E-02  2.8483438834E-02  3.6339187115E-01
  5.40500E+03  1.9712775661E+00  7.6840228046E+00  2.9091273357E-02  2.8561640111E-02  3.6362829941E-01
  5.41000E+03  1.9734129796E+00  7.6800294660E+00  2.9172141044E-02  2.8639980866E-02  3.6386448877E-01
  5.41500E+03  1.9755487303E+00  7.6760418888E+00  2.9253158188E-02  2.8718461203E-02  3.6410043985E-01
  5.42000E+03  1.9776848182E+00  7.6720600594E+00  2.9334324925E-02  2.8797081230E-02  3.6433615327E-01
  5.42500E+03  1.9798212429E+00  7.6680839643E+00  2.9415641392E-02  2.8875841053E-02  3.6457162964E-01
  5.43000E+03  1.9819580042E+00  7.6641135899E+00  2.9497107727E-02  2.8954740779E-02  3.6480686957E-01
  5.43500E+03  1.9840951017E+00  7.6601489227E+00  2.9578724065E-02  2.9033780513E-02  3.6504187366E-01
  5.44000E+03  1.9862325354E+00  7.6561899492E+00  2.9660490544E-02  2.9112960362E-02  3.6527664252E-01
  5.44500E+03  1.9883703048E+00  7.6522366562E+00  2.9742407300E-02  2.9192280433E-02  3.6551117676E-01
  5.45000E+03  1.9905084098E+00  7.6482890302E+00  2.9824474470E-02  2.9271740831E-02  3.6574547698E-01
  5.45500E+03  1.9926468500E+00  7.6443470578E+00  2.9906692192E-02  2.9351341663E-02  3.6597954377E-01
  5.46000E+03  1.9947856253E+00  7.6404107260E+00  2.9989060602E-02  2.9431083034E-02  3.6621337773E-01
  5.46500E+03  1.9969466756E+00  7.6366058009E+00  3.0071579837E-02  2.9510971720E-02  3.6644697946E-01
  5.47000E+03  1.9991173976E+00  7.6328595371E+00  3.0154250033E-02  2.9591004057E-02  3.6668034954E-01
  5.47500E+03  2.0012884928E+00  7.6291185314E+00  3.0237071328E-02  2.9671177332E-02  3.6691348857E-01
  5.48000E+03  2.0034599608E+00  7.6253827715E+00  3.0320388305E-02  2.9751823305E-02  3.6714639714E-01
  5.48500E+03  2.0056318013E+00  7.6216522455E+00  3.0404136175E-02  2.9832879495E-02  3.6737907583E-01
  5.49000E+03  2.0078040140E+00  7.6179269411E+00  3.0488038417E-02  2.9914079608E-02  3.6761152522E-01
  5.49500E+03  2.0099765988E+00  7.6142068464E+00  3.0572095173E-02  2.9995423757E-02  3.6784374590E-01
  5.50000E+03  2.0121495552E+00  7.6104919492E+00  3.0656306586E-02  3.0076912050E-02  3.6807573844E-01
  5.50500E+03  2.0143228831E+00  7.6067822378E+00  3.0740672798E-02  3.0158544599E-02  3.6830750343E-01
  5.51000E+03  2.0164965821E+00  7.6030777000E+00  3.0825193953E-02  3.0240321515E-02  3.6853904143E-01
  5.51500E+03  2.0186706520E+00  7.5993783240E+00  3.0909870192E-02  3.0322242907E-02  3.6877035303E-01
  5.52000E+03  2.0208450925E+00  7.5956840979E+00  3.0994701659E-02  3.0404308886E-02  3.6900143879E-01
  5.52500E+03  2.0230199034E+00  7.5919950100E+00  3.1079688496E-02  3.0486519563E-02  3.6923229927E-01
  5.53000E+03  2.0251950844E+00  7.5883110484E+00  3.1164830845E-02  3.0568875047E-02  3.6946293506E-01
  5.53500E+03  2.0273706351E+00  7.5846322014E+00  3.1250128849E-02  3.0651375448E-02  3.6969334671E-01
  5.54000E+03  2.0295465553E+00  7.5809584572E+00  3.1335582651E-02  3.0734020877E-02  3.6992353478E-01
  5.54500E+03  2.0317228448E+00  7.5772898042E+00  3.1421192393E-02  3.0816811444E-02  3.7015349984E-01
  5.55000E+03  2.0338995033E+00  7.5736262308E+00  3.1506958218E-02  3.0899747258E-02  3.7038324244E-01
  5.55500E+03  2.0360765305E+00  7.5699677253E+00  3.1592880269E-02  3.0982828429E-02  3.7061276315E-01
  5.56000E+03  2.0382539262E+00  7.5663142762E+00  3.1678958688E-02  3.1066055068E-02  3.7084206251E-01
  5.56500E+03  2.0404316900E+00  7.5626658720E+00  3.1765193617E-02  3.1149427283E-02  3.7107114108E-01
  5.57000E+03  2.0426098217E+00  7.5590225012E+00  3.1851585199E-02  3.1232945184E-02  3.7129999942E-01
  5.57500E+03  2.0447883211E+00  7.5553841523E+00  3.1938133577E-02  3.1316608881E-02  3.7152863806E-01
  5.58000E+03  2.0469671878E+00  7.5517508139E+00  3.2024838894E-02  3.1400418483E-02  3.7175705756E-01
  5.58500E+03  2.0491464217E+00  7.5481224746E+00  3.2111701291E-02  3.1484374100E-02  3.7198525845E-01
  5.59000E+03  2.0513260223E+00  7.5444991231E+00  3.2198720912E-02  3.1568475841E-02  3.7221324130E-01
  5.59500E+03  2.0535059896E+00  7.5408807481E+00  3.2285897899E-02  3.1652723815E-02  3.7244100663E-01
  5.60000E+03  2.0556863231E+00  7.5372673382E+00  3.2373232395E-02  3.1737118131E-02  3.7266855498E-01
  5.60500E+03  2.0578670227E+00  7.5336588824E+00  3.2460724542E-02  3.1821658899E-02  3.7289588690E-01
  5.61000E+03  2.0600480880E+00  7.5300553693E+00  3.2548374483E-02  3.1906346227E-02  3.7312300291E-01
  5.61500E+03  2.0622295189E+00  7.5264567878E+00  3.2636182361E-02  3.1991180224E-02  3.7334990356E-01
  5.62000E+03  2.0644113150E+00  7.5228631267E+00  3.2724148317E-02  3.2076161000E-02  3.7357658937E-01
  5.62500E+03  2.0665934761E+00  7.5192743750E+00  3.2812272495E-02  3.2161288662E-02  3.7380306088E-01
  5.63000E+03  2.0687760019E+00  7.5156905217E+00  3.2900555037E-02  3.2246563320E-02  3.7402931861E-01
  5.63500E+03  2.0709588921E+00  7.5121115556E+00  3.2988996086E-02  3.2331985083E-02  3.7425536308E-01
  5.64000E+03  2.0731421466E+00  7.5085374657E+00  3.3077595784E-02  3.2417554058E-02  3.7448119483E-01
  5.64500E+03  2.0753257649E+00  7.5049682412E+00  3.3166354274E-02  3.2503270354E-02  3.7470681437E-01
  5.65000E+03  2.0775097470E+00  7.5014038712E+00  3.3255271699E-02  3.2589134081E-02  3.7493222231E-01
  5.65500E+03  2.0796940924E+00  7.4978443446E+00  3.3344348201E-02  3.2675145345E-02  3.7515741926E-01
  5.66000E+03  2.0818788010E+00  7.4942896507E+00  3.3433583922E-02  3.2761304255E-02  3.7538240578E-01
  5.66500E+03  2.0840638725E+00  7.4907397786E+00  3.3522979006E-02  3.2847610920E-02  3.7560718245E-01
  5.67000E+03  2.0862493065E+00  7.4871947175E+00  3.3612533594E-02  3.2934065448E-02  3.7583174985E-01
  5.67500E+03  2.0884351030E+00  7.4836544568E+00  3.3702247830E-02  3.3020667946E-02  3.7605610853E-01
  5.68000E+03  2.0906251001E+00  7.4801406922E+00  3.3792121856E-02  3.3107419911E-02  3.7628025907E-01
  5.68500E+03  2.0928403795E+00  7.4767723497E+00  3.3882155814E-02  3.3194329114E-02  3.7650420202E-01
  5.69000E+03  2.0950560556E+00  7.4734084832E+00  3.3972349847E-02  3.3281386700E-02  3.7672793795E-01
  5.69500E+03  2.0972721282E+00  7.4700490829E+00  3.4062704098E-02  3.3368592777E-02  3.7695146742E-01
  5.70000E+03  2.0994885971E+00  7.4666941387E+00  3.4153218710E-02  3.3455947452E-02  3.7717479098E-01
  5.70500E+03  2.1017054619E+00  7.4633436410E+00  3.4243893824E-02  3.3543450834E-02  3.7739790919E-01
  5.71000E+03  2.1039227223E+00  7.4599975800E+00  3.4334729583E-02  3.3631103030E-02  3.7762082260E-01
  5.71500E+03  2.1061403782E+00  7.4566559458E+00  3.4425726131E-02  3.3718904148E-02  3.7784353177E-01
  5.72000E+03  2.1083584291E+00  7.4533187288E+00  3.4516883609E-02  3.3806854297E-02  3.7806603725E-01
  5.72500E+03  2.1105768749E+00  7.4499859193E+00  3.4608202160E-02  3.3894953584E-02  3.7828833957E-01
  5.73000E+03  2.1127957153E+00  7.4466575077E+00  3.4699681927E-02  3.3983202116E-02  3.7851043928E-01
  5.73500E+03  2.1150149499E+00  7.4433334842E+00  3.4791363985E-02  3.4071639258E-02  3.7873233694E-01
  5.74000E+03  2.1172345786E+00  7.4400138393E+00  3.4883254397E-02  3.4160270785E-02  3.7895403308E-01
  5.74500E+03  2.1194546010E+00  7.4366985634E+00  3.4975306893E-02  3.4249052290E-02  3.7917552823E-01
  5.75000E+03  2.1216750168E+00  7.4333876469E+00  3.5067521617E-02  3.4337983881E-02  3.7939682294E-01
  5.75500E+03  2.1238958259E+00  7.4300810805E+00  3.5159898713E-02  3.4427065665E-02  3.7961791775E-01
  5.76000E+03  2.1261170279E+00  7.4267788545E+00  3.5252438324E-02  3.4516297752E-02  3.7983881317E-01
  5.76500E+03  2.1283386225E+00  7.4234809594E+00  3.5345140594E-02  3.4605680248E-02  3.8005950976E-01
  5.77000E+03  2.1305606096E+00  7.4201873860E+00  3.5438005666E-02  3.4695213262E-02  3.8028000803E-01
  5.77500E+03  2.1327829887E+00  7.4168981248E+00  3.5531033685E-02  3.4784896901E-02  3.8050030851E-01
  5.78000E+03  2.1350057597E+00  7.4136131663E+00  3.5624224793E-02  3.4874731274E-02  3.8072041174E-01
  5.78500E+03  2.1372289222E+00  7.4103325013E+00  3.5717579134E-02  3.4964716488E-02  3.8094031823E-01
  5.79000E+03  2.1394524761E+00  7.4070561205E+00  3.5811096853E-02  3.5054852651E-02  3.8116002850E-01
  5.79500E+03  2.1416764209E+00  7.4037840145E+00  3.5904778092E-02  3.5145139869E-02  3.8137954308E-01
  5.80000E+03  2.1439007566E+00  7.4005161741E+00  3.5998622995E-02  3.5235578252E-02  3.8159886249E-01
  5.80500E+03  2.1461254827E+00  7.3972525900E+00  3.6092631706E-02  3.5326167906E-02  3.8181798724E-01
  5.81000E+03  2.1483505991E+00  7.3939932532E+00  3.6186804369E-02  3.5416908938E-02  3.8203691785E-01
  5.81500E+03  2.1505761054E+00  7.3907381543E+00  3.6281141127E-02  3.5507801456E-02  3.8225565482E-01
  5.82000E+03  2.1528020014E+00  7.3874872843E+00  3.6375642123E-02  3.5598845567E-02  3.8247419868E-01
  5.82500E+03  2.1550282868E+00  7.3842406340E+00  3.6470307503E-02  3.5690041377E-02  3.8269254992E-01
  5.83000E+03  2.1572549614E+00  7.3809981943E+00  3.6565137408E-02  3.5781388995E-02  3.8291070907E-01
  5.83500E+03  2.1594820249E+00  7.3777599562E+00  3.6660131983E-02  3.5872888526E-02  3.8312867661E-01
  5.84000E+03  2.1617094770E+00  7.3745259106E+00  3.6755291371E-02  3.5964540078E-02  3.8334645307E-01
  5.84500E+03  2.1639373175E+00  7.3712960485E+00  3.6850615717E-02  3.6056343758E-02  3.8356403894E-01
  5.85000E+03  2.1661655461E+00  7.3680703610E+00  3.6946105163E-02  3.6148299672E-02  3.8378143471E-01
  5.85500E+03  2.1683941625E+00  7.3648488390E+00  3.7041759853E-02  3.6240407926E-02  3.8399864090E-01
  5.86000E+03  2.1706231665E+00  7.3616314737E+00  3.7137579932E-02  3.6332668628E-02  3.8421565800E-01
  5.86500E+03  2.1728525578E+00  7.3584182561E+00  3.7233565542E-02  3.6425081884E-02  3.8443248649E-01
  5.87000E+03  2.1750823361E+00  7.3552091774E+00  3.7329716827E-02  3.6517647800E-02  3.8464912689E-01
  5.87500E+03  2.1773125013E+00  7.3520042288E+00  3.7426033931E-02  3.6610366482E-02  3.8486557967E-01
  5.88000E+03  2.1795430529E+00  7.3488034013E+00  3.7522516997E-02  3.6703238037E-02  3.8508184533E-01
  5.88500E+03  2.1817739908E+00  7.3456066862E+00  3.7619166170E-02  3.6796262571E-02  3.8529792436E-01
  5.89000E+03  2.1840053147E+00  7.3424140747E+00  3.7715981593E-02  3.6889440190E-02  3.8551381725E-01
  5.89500E+03  2.1862370243E+00  7.3392255581E+00  3.7812963409E-02  3.6982771000E-02  3.8572952448E-01
  5.90000E+03  2.1884691194E+00  7.3360411277E+00  3.7910111762E-02  3.7076255106E-02  3.8594504653E-01
  5.90500E+03  2.1907015997E+00  7.3328607748E+00  3.8007426796E-02  3.7169892616E-02  3.8616038389E-01
  5.91000E+03  2.1929561772E+00  7.3298062347E+00  3.8104908654E-02  3.7263693049E-02  3.8637553703E-01
  5.91500E+03  2.1952157072E+00  7.3267809788E+00  3.8202557481E-02  3.7357649150E-02  3.8659050644E-01
  5.92000E+03  2.1974756533E+00  7.3237595263E+00  3.8300373419E-02  3.7451759064E-02  3.8680529259E-01
  5.92500E+03  2.1997360150E+00  7.3207418689E+00  3.8398356612E-02  3.7546022897E-02  3.8701989597E-01
  5.93000E+03  2.2019967922E+00  7.3177279989E+00  3.8496507205E-02  3.7640440755E-02  3.8723431703E-01
  5.93500E+03  2.2042579846E+00  7.3147179082E+00  3.8594825340E-02  3.7735012744E-02  3.8744855626E-01
  5.94000E+03  2.2065195918E+00  7.3117115889E+00  3.8693311161E-02  3.7829738969E-02  3.8766261413E-01
  5.94500E+03  2.2087816137E+00  7.3087090331E+00  3.8791964813E-02  3.7924619537E-02  3.8787649111E-01
  5.95000E+03  2.2110440498E+00  7.3057102331E+00  3.8890786438E-02  3.8019654552E-02  3.8809018765E-01
  5.95500E+03  2.2133069001E+00  7.3027151808E+00  3.8989776180E-02  3.8114844120E-02  3.8830370414E-01
  5.96000E+03  2.2155701641E+00  7.2997238685E+00  3.9088934183E-02  3.8210188347E-02  3.8851704097E-01
  5.96500E+03  2.2178338417E+00  7.2967362884E+00  3.9188260591E-02  3.8305687338E-02  3.8873019866E-01
  5.97000E+03  2.2200979325E+00  7.2937524327E+00  3.9287755547E-02  3.8401341198E-02  3.8894317772E-01
  5.97500E+03  2.2223624363E+00  7.2907722937E+00  3.9387419194E-02  3.8497150032E-02  3.8915597864E-01
  5.98000E+03  2.2246273528E+00  7.2877958636E+00  3.9487251678E-02  3.8593113947E-02  3.8936860194E-01
  5.98500E+03  2.2268926817E+00  7.2848231347E+00  3.9587253140E-02  3.8689233045E-02  3.8958104811E-01
  5.99000E+03  2.2291584229E+00  7.2818540993E+00  3.9687423725E-02  3.8785507434E-02  3.8979331765E-01
  5.99500E+03  2.2314245759E+00  7.2788887498E+00  3.9787763577E-02  3.8881937216E-02  3.9000541106E-01
  6.00000E+03  2.2336911405E+00  7.2759270785E+00  3.9888272839E-02  3.8978522498E-02  3.9021732885E-01
  6.00500E+03  2.2359581165E+00  7.2729690777E+00  3.9989421822E-02  3.9075712311E-02  3.9042907149E-01
  6.01000E+03  2.2382255036E+00  7.2700147400E+00  4.0090742490E-02  3.9173059654E-02  3.9064063948E-01
  6.01500E+03  2.2404933016E+00  7.2670640577E+00  4.0192234990E-02  3.9270564636E-02  3.9085203332E-01
  6.02000E+03  2.2427615101E+00  7.2641170232E+00  4.0293899470E-02  3.9368227362E-02  3.9106325350E-01
  6.02500E+03  2.2450301289E+00  7.2611736290E+00  4.0395736077E-02  3.9466047941E-02  3.9127430049E-01
  6.03000E+03  2.2472991577E+00  7.2582338676E+00  4.0497744959E-02  3.9564026481E-02  3.9148517480E-01
  6.03500E+03  2.2495685963E+00  7.2552977316E+00  4.0599926262E-02  3.9662163087E-02  3.9169587689E-01
  6.04000E+03  2.2518384444E+00  7.2523652134E+00  4.0702280135E-02  3.9760457867E-02  3.9190640726E-01
  6.04500E+03  2.2541087017E+00  7.2494363056E+00  4.0804806725E-02  3.9858910929E-02  3.9211676638E-01
  6.05000E+03  2.2563793680E+00  7.2465110008E+00  4.0907506179E-02  3.9957522379E-02  3.9232695474E-01
  6.05500E+03  2.2586504429E+00  7.2435892916E+00  4.1010378644E-02  4.0056292324E-02  3.9253697281E-01
  6.06000E+03  2.2609219264E+00  7.2406711705E+00  4.1113424268E-02  4.0155220870E-02  3.9274682107E-01
  6.06500E+03  2.2631938180E+00  7.2377566303E+00  4.1216643199E-02  4.0254308126E-02  3.9295649998E-01
  6.07000E+03  2.2654661175E+00  7.2348456635E+00  4.1320035583E-02  4.0353554196E-02  3.9316601004E-01
  6.07500E+03  2.2677388246E+00  7.2319382629E+00  4.1423601568E-02  4.0452959188E-02  3.9337535169E-01
  6.08000E+03  2.2700119392E+00  7.2290344212E+00  4.1527341302E-02  4.0552523208E-02  3.9358452543E-01
  6.08500E+03  2.2722854608E+00  7.2261341311E+00  4.1631254932E-02  4.0652246362E-02  3.9379353170E-01
  6.09000E+03  2.2745593894E+00  7.2232373853E+00  4.1735342606E-02  4.0752128757E-02  3.9400237099E-01
  6.09500E+03  2.2768337245E+00  7.2203441766E+00  4.1839604470E-02  4.0852170500E-02  3.9421104375E-01
  6.10000E+03  2.2791084660E+00  7.2174544978E+00  4.1944040672E-02  4.0952371695E-02  3.9441955045E-01
  6.10500E+03  2.2813836135E+00  7.2145683417E+00  4.2048651360E-02  4.1052732449E-02  3.9462789154E-01
  6.11000E+03  2.2836591669E+00  7.2116857010E+00  4.2153436681E-02  4.1153252868E-02  3.9483606750E-01
  6.11500E+03  2.2859351258E+00  7.2088065688E+00  4.2258396782E-02  4.1253933058E-02  3.9504407877E-01
  6.12000E+03  2.2882114900E+00  7.2059309377E+00  4.2363531812E-02  4.1354773125E-02  3.9525192582E-01
  6.12500E+03  2.2904882593E+00  7.2030588008E+00  4.2468841916E-02  4.1455773175E-02  3.9545960910E-01
  6.13000E+03  2.2927654334E+00  7.2001901509E+00  4.2574327243E-02  4.1556933312E-02  3.9566712907E-01
  6.13500E+03  2.2950430119E+00  7.1973249810E+00  4.2679987941E-02  4.1658253643E-02  3.9587448617E-01
  6.14000E+03  2.2973209948E+00  7.1944632839E+00  4.2785824156E-02  4.1759734273E-02  3.9608168086E-01
  6.14500E+03  2.2996165052E+00  7.1917000413E+00  4.2891836036E-02  4.1861384200E-02  3.9628871359E-01
  6.15000E+03  2.3019193205E+00  7.1889782239E+00  4.2998023729E-02  4.1963198293E-02  3.9649558481E-01
  6.15500E+03  2.3042225676E+00  7.1862596473E+00  4.3104387381E-02  4.2065173099E-02  3.9670229496E-01
  6.16000E+03  2.3065262462E+00  7.1835443051E+00  4.3210927141E-02  4.2167308726E-02  3.9690884448E-01
  6.16500E+03  2.3088303559E+00  7.1808321907E+00  4.3317643156E-02  4.2269605278E-02  3.9711523383E-01
  6.17000E+03  2.3111348967E+00  7.1781232978E+00  4.3424535573E-02  4.2372062860E-02  3.9732146345E-01
  6.17500E+03  2.3134398681E+00  7.1754176198E+00  4.3531604540E-02  4.2474681579E-02  3.9752753377E-01
  6.18000E+03  2.3157452699E+00  7.1727151504E+00  4.3638850204E-02  4.2577461539E-02  3.9773344523E-01
  6.18500E+03  2.3180511019E+00  7.1700158832E+00  4.3746272712E-02  4.2680402845E-02  3.9793919828E-01
  6.19000E+03  2.3203573637E+00  7.1673198117E+00  4.3853872213E-02  4.2783505603E-02  3.9814479335E-01
  6.19500E+03  2.3226640552E+00  7.1646269298E+00  4.3961648853E-02  4.2886769918E-02  3.9835023087E-01
  6.20000E+03  2.3249711760E+00  7.1619372308E+00  4.4069602780E-02  4.2990195894E-02  3.9855551128E-01
  6.20500E+03  2.3272787259E+00  7.1592507087E+00  4.4177734141E-02  4.3093783636E-02  3.9876063502E-01
  6.21000E+03  2.3295867046E+00  7.1565673570E+00  4.4286043085E-02  4.3197533250E-02  3.9896560250E-01
  6.21500E+03  2.3318951118E+00  7.1538871695E+00  4.4394529757E-02  4.3301444840E-02  3.9917041417E-01
  6.22000E+03  2.3342039473E+00  7.1512101399E+00  4.4503194307E-02  4.3405518510E-02  3.9937507045E-01
  6.22500E+03  2.3365132109E+00  7.1485362620E+00  4.4612036881E-02  4.3509754364E-02  3.9957957176E-01
  6.23000E+03  2.3388229022E+00  7.1458655294E+00  4.4721057627E-02  4.3614152509E-02  3.9978391854E-01
  6.23500E+03  2.3411330210E+00  7.1431979360E+00  4.4830256692E-02  4.3718713047E-02  3.9998811121E-01
  6.24000E+03  2.3434435670E+00  7.1405334756E+00  4.4939634223E-02  4.3823436083E-02  4.0019215019E-01
  6.24500E+03  2.3457545399E+00  7.1378721420E+00  4.5049190369E-02  4.3928321721E-02  4.0039603590E-01
  6.25000E+03  2.3480659396E+00  7.1352139291E+00  4.5158925277E-02  4.4033370066E-02  4.0059976876E-01
  6.25500E+03  2.3503777657E+00  7.1325588306E+00  4.5268839093E-02  4.4138581221E-02  4.0080334920E-01
  6.26000E+03  2.3526900180E+00  7.1299068404E+00  4.5378931967E-02  4.4243955290E-02  4.0100677762E-01
  6.26500E+03  2.3550026962E+00  7.1272579525E+00  4.5489204044E-02  4.4349492377E-02  4.0121005445E-01
  6.27000E+03  2.3573158000E+00  7.1246121607E+00  4.5599655474E-02  4.4455192586E-02  4.0141318010E-01
  6.27500E+03  2.3596293293E+00  7.1219694590E+00  4.5710286402E-02  4.4561056021E-02  4.0161615499E-01
  6.28000E+03  2.3619432836E+00  7.1193298412E+00  4.5821096977E-02  4.4667082785E-02  4.0181897952E-01
  6.28500E+03  2.3642576628E+00  7.1166933013E+00  4.5932087346E-02  4.4773272981E-02  4.0202165412E-01
  6.29000E+03  2.3665724667E+00  7.1140598334E+00  4.6043257656E-02  4.4879626713E-02  4.0222417918E-01
  6.29500E+03  2.3688876948E+00  7.1114294313E+00  4.6154608056E-02  4.4986144085E-02  4.0242655512E-01
  6.30000E+03  2.3712033471E+00  7.1088020891E+00  4.6266138692E-02  4.5092825200E-02  4.0262878234E-01
  6.30500E+03  2.3735194232E+00  7.1061778008E+00  4.6377849713E-02  4.5199670160E-02  4.0283086126E-01
  6.31000E+03  2.3758359229E+00  7.1035565604E+00  4.6489741265E-02  4.5306679069E-02  4.0303279227E-01
  6.31500E+03  2.3781528458E+00  7.1009383620E+00  4.6601813496E-02  4.5413852030E-02  4.0323457578E-01
  6.32000E+03  2.3804701919E+00  7.0983231996E+00  4.6714066554E-02  4.5521189146E-02  4.0343621219E-01
  6.32500E+03  2.3827879607E+00  7.0957110673E+00  4.6826500585E-02  4.5628690519E-02  4.0363770191E-01
  6.33000E+03  2.3851061521E+00  7.0931019593E+00  4.6939115739E-02  4.5736356253E-02  4.0383904534E-01
  6.33500E+03  2.3874247657E+00  7.0904958696E+00  4.7051912162E-02  4.5844186449E-02  4.0404024286E-01
  6.34000E+03  2.3897438014E+00  7.0878927923E+00  4.7164890001E-02  4.5952181212E-02  4.0424129489E-01
  6.34500E+03  2.3920632589E+00  7.0852927217E+00  4.7278049405E-02  4.6060340642E-02  4.0444220182E-01
  6.35000E+03  2.3943831378E+00  7.0826956518E+00  4.7391390520E-02  4.6168664843E-02  4.0464296403E-01
  6.35500E+03  2.3967034380E+00  7.0801015769E+00  4.7504913494E-02  4.6277153916E-02  4.0484358194E-01
  6.36000E+03  2.3990241593E+00  7.0775104911E+00  4.7618618476E-02  4.6385807964E-02  4.0504405592E-01
  6.36500E+03  2.4013453012E+00  7.0749223887E+00  4.7732505611E-02  4.6494627090E-02  4.0524438638E-01
  6.37000E+03  2.4036668637E+00  7.0723372638E+00  4.7846575048E-02  4.6603611394E-02  4.0544457370E-01
  6.37500E+03  2.4059888464E+00  7.0697551108E+00  4.7960826935E-02  4.6712760980E-02  4.0564461827E-01
  6.38000E+03  2.4083112491E+00  7.0671759239E+00  4.8075261419E-02  4.6822075948E-02  4.0584452048E-01
  6.38500E+03  2.4106340716E+00  7.0645996973E+00  4.8189878647E-02  4.6931556402E-02  4.0604428072E-01
  6.39000E+03  2.4129731250E+00  7.0621130086E+00  4.8304678767E-02  4.7041212292E-02  4.0624389937E-01
  6.39500E+03  2.4153187495E+00  7.0596626824E+00  4.8419661926E-02  4.7151037780E-02  4.0644337682E-01
  6.40000E+03  2.4176648182E+00  7.0572151204E+00  4.8534828272E-02  4.7261029163E-02  4.0664271346E-01
  6.40500E+03  2.4200113309E+00  7.0547703174E+00  4.8650177953E-02  4.7371186543E-02  4.0684190966E-01
  6.41000E+03  2.4223582873E+00  7.0523282682E+00  4.8765711117E-02  4.7481510020E-02  4.0704096580E-01
  6.41500E+03  2.4247056872E+00  7.0498889674E+00  4.8881427909E-02  4.7591999698E-02  4.0723988227E-01
