#[MATERIAL DEFINITION FOR MC-GPU: interaction mean free path and sampling data from PENELOPE 2006]
#[MATERIAL NAME]
# POLYSTYRENE  (227)                                            
#[NOMINAL DENSITY (g/cm^3)]
#   1.06000000
#[NUMBER OF DATA VALUES]
#  23002
#[MEAN FREE PATHS (cm) (ie, average distance between interactions)]
#[Energy (eV)     | Rayleigh        | Compton         | Photoelectric   | TOTAL (+pair prod) (cm) | Rayleigh: max cumul prob F^2]
  5.00000E3  2.7706812056E0  7.9616134802E0  5.4825056646E-2  5.3400660920E-2  3.3113000024E-1
  5.00500E3  2.7738246751E0  7.9573078198E0  5.4996957836E-2  5.3564711151E-2  3.3137904844E-1
  5.01000E3  2.7769685668E0  7.9530087835E0  5.5169225561E-2  5.3729092011E-2  3.3162797227E-1
  5.01500E3  2.7801128806E0  7.9487163547E0  5.5341860236E-2  5.3893803783E-2  3.3187677232E-1
  5.02000E3  2.7832576159E0  7.9444305166E0  5.5514862276E-2  5.4058846751E-2  3.3212544915E-1
  5.02500E3  2.7864027724E0  7.9401512526E0  5.5688232096E-2  5.4224221199E-2  3.3237400333E-1
  5.03000E3  2.7895483498E0  7.9358785460E0  5.5861970110E-2  5.4389927407E-2  3.3262243545E-1
  5.03500E3  2.7926943477E0  7.9316123803E0  5.6036076732E-2  5.4555965660E-2  3.3287074606E-1
  5.04000E3  2.7958407658E0  7.9273527390E0  5.6210552378E-2  5.4722336238E-2  3.3311893574E-1
  5.04500E3  2.7989876036E0  7.9230996057E0  5.6385397463E-2  5.4889039424E-2  3.3336700507E-1
  5.05000E3  2.8021348608E0  7.9188529640E0  5.6560612402E-2  5.5056075499E-2  3.3361495462E-1
  5.05500E3  2.8052825370E0  7.9146127975E0  5.6736197609E-2  5.5223444744E-2  3.3386278489E-1
  5.06000E3  2.8084306320E0  7.9103790900E0  5.6912153500E-2  5.5391147440E-2  3.3411049643E-1
  5.06500E3  2.8115791453E0  7.9061518253E0  5.7088480490E-2  5.5559183868E-2  3.3435808973E-1
  5.07000E3  2.8147280766E0  7.9019309873E0  5.7265178994E-2  5.5727554306E-2  3.3460556531E-1
  5.07500E3  2.8178774255E0  7.8977165598E0  5.7442249427E-2  5.5896259037E-2  3.3485292369E-1
  5.08000E3  2.8210271916E0  7.8935085268E0  5.7619692204E-2  5.6065298338E-2  3.3510016539E-1
  5.08500E3  2.8241845463E0  7.8893721657E0  5.7797507741E-2  5.6234678650E-2  3.3534729090E-1
  5.09000E3  2.8273430249E0  7.8852483821E0  5.7975696453E-2  5.6404394760E-2  3.3559430076E-1
  5.09500E3  2.8305019295E0  7.8811307998E0  5.8154258756E-2  5.6574446350E-2  3.3584119546E-1
  5.10000E3  2.8336612598E0  7.8770194033E0  5.8333195065E-2  5.6744833699E-2  3.3608797551E-1
  5.10500E3  2.8368210154E0  7.8729141772E0  5.8512505796E-2  5.6915557085E-2  3.3633464143E-1
  5.11000E3  2.8399811959E0  7.8688151063E0  5.8692191364E-2  5.7086616787E-2  3.3658119372E-1
  5.11500E3  2.8431418010E0  7.8647221754E0  5.8872252185E-2  5.7258013082E-2  3.3682763289E-1
  5.12000E3  2.8463028304E0  7.8606353692E0  5.9052688674E-2  5.7429746248E-2  3.3707395945E-1
  5.12500E3  2.8494642837E0  7.8565546727E0  5.9233501248E-2  5.7601816563E-2  3.3732017390E-1
  5.13000E3  2.8526261604E0  7.8524800707E0  5.9414690322E-2  5.7774224302E-2  3.3756627674E-1
  5.13500E3  2.8557884604E0  7.8484115482E0  5.9596256312E-2  5.7946969743E-2  3.3781226848E-1
  5.14000E3  2.8589511831E0  7.8443490903E0  5.9778199633E-2  5.8120053162E-2  3.3805814963E-1
  5.14500E3  2.8621143283E0  7.8402926819E0  5.9960520703E-2  5.8293474835E-2  3.3830392068E-1
  5.15000E3  2.8652778956E0  7.8362423083E0  6.0143219937E-2  5.8467235037E-2  3.3854958213E-1
  5.15500E3  2.8684418847E0  7.8321979546E0  6.0326297751E-2  5.8641334044E-2  3.3879513449E-1
  5.16000E3  2.8716062951E0  7.8281596061E0  6.0509754561E-2  5.8815772131E-2  3.3904057826E-1
  5.16500E3  2.8747752312E0  7.8241651820E0  6.0693590783E-2  5.8990553457E-2  3.3928591393E-1
  5.17000E3  2.8779479068E0  7.8202072351E0  6.0877806834E-2  5.9165677603E-2  3.3953114200E-1
  5.17500E3  2.8811210119E0  7.8162551133E0  6.1062403130E-2  5.9341141727E-2  3.3977626297E-1
  5.18000E3  2.8842945462E0  7.8123088026E0  6.1247380087E-2  5.9516946101E-2  3.4002127734E-1
  5.18500E3  2.8874685093E0  7.8083682888E0  6.1432738122E-2  5.9693091001E-2  3.4026618560E-1
  5.19000E3  2.8906429008E0  7.8044335577E0  6.1618477651E-2  5.9869576699E-2  3.4051098824E-1
  5.19500E3  2.8938177203E0  7.8005045955E0  6.1804599090E-2  6.0046403469E-2  3.4075568577E-1
  5.20000E3  2.8969929676E0  7.7965813880E0  6.1991102857E-2  6.0223571584E-2  3.4100027867E-1
  5.20500E3  2.9001686423E0  7.7926639213E0  6.2177989367E-2  6.0401081316E-2  3.4124476744E-1
  5.21000E3  2.9033447440E0  7.7887521815E0  6.2365259038E-2  6.0578932938E-2  3.4148915256E-1
  5.21500E3  2.9065212723E0  7.7848461548E0  6.2552912286E-2  6.0757126721E-2  3.4173343454E-1
  5.22000E3  2.9096982270E0  7.7809458272E0  6.2740949528E-2  6.0935662938E-2  3.4197761385E-1
  5.22500E3  2.9128756076E0  7.7770511852E0  6.2929371181E-2  6.1114541859E-2  3.4222169100E-1
  5.23000E3  2.9160534138E0  7.7731622150E0  6.3118177661E-2  6.1293763755E-2  3.4246566647E-1
  5.23500E3  2.9192316453E0  7.7692789028E0  6.3307369386E-2  6.1473328897E-2  3.4270954074E-1
  5.24000E3  2.9224103017E0  7.7654012351E0  6.3496946772E-2  6.1653237556E-2  3.4295331431E-1
  5.24500E3  2.9255893826E0  7.7615291983E0  6.3686910237E-2  6.1833490000E-2  3.4319698766E-1
  5.25000E3  2.9287753807E0  7.7577238441E0  6.3877260198E-2  6.2014093314E-2  3.4344056128E-1
  5.25500E3  2.9319622827E0  7.7539284092E0  6.4067997072E-2  6.2195041522E-2  3.4368403566E-1
  5.26000E3  2.9351496168E0  7.7501384382E0  6.4259121275E-2  6.2376334400E-2  3.4392741128E-1
  5.26500E3  2.9383373825E0  7.7463539179E0  6.4450633226E-2  6.2557972218E-2  3.4417068862E-1
  5.27000E3  2.9415255795E0  7.7425748353E0  6.4642533341E-2  6.2739955244E-2  3.4441386816E-1
  5.27500E3  2.9447142075E0  7.7388011776E0  6.4834822038E-2  6.2922283747E-2  3.4465695040E-1
  5.28000E3  2.9479032661E0  7.7350329317E0  6.5027499734E-2  6.3104957995E-2  3.4489993582E-1
  5.28500E3  2.9510927550E0  7.7312700847E0  6.5220566848E-2  6.3287978256E-2  3.4514282488E-1
  5.29000E3  2.9542826738E0  7.7275126240E0  6.5414023795E-2  6.3471344798E-2  3.4538561809E-1
  5.29500E3  2.9574730221E0  7.7237605366E0  6.5607870994E-2  6.3655057886E-2  3.4562831591E-1
  5.30000E3  2.9606637997E0  7.7200138098E0  6.5802108863E-2  6.3839117790E-2  3.4587091883E-1
  5.30500E3  2.9638550061E0  7.7162724310E0  6.5996737818E-2  6.4023524774E-2  3.4611342732E-1
  5.31000E3  2.9670466410E0  7.7125363874E0  6.6191758279E-2  6.4208279105E-2  3.4635584187E-1
  5.31500E3  2.9702387042E0  7.7088056664E0  6.6387170662E-2  6.4393381048E-2  3.4659816296E-1
  5.32000E3  2.9734311951E0  7.7050802555E0  6.6582975385E-2  6.4578830870E-2  3.4684039104E-1
  5.32500E3  2.9766241136E0  7.7013601421E0  6.6779172867E-2  6.4764628836E-2  3.4708252656E-1
  5.33000E3  2.9798177419E0  7.6976480368E0  6.6975763525E-2  6.4950775538E-2  3.4732456992E-1
  5.33500E3  2.9830180246E0  7.6940010772E0  6.7172747777E-2  6.5137278177E-2  3.4756652154E-1
  5.34000E3  2.9862187416E0  7.6903592594E0  6.7370126041E-2  6.5324129830E-2  3.4780838184E-1
  5.34500E3  2.9894198925E0  7.6867225713E0  6.7567898736E-2  6.5511330763E-2  3.4805015123E-1
  5.35000E3  2.9926214771E0  7.6830910009E0  6.7766066278E-2  6.5698881238E-2  3.4829183014E-1
  5.35500E3  2.9958234949E0  7.6794645363E0  6.7964629088E-2  6.5886781519E-2  3.4853341897E-1
  5.36000E3  2.9990259457E0  7.6758431654E0  6.8163587582E-2  6.6075031870E-2  3.4877491814E-1
  5.36500E3  3.0022288290E0  7.6722268764E0  6.8362942179E-2  6.6263632553E-2  3.4901632807E-1
  5.37000E3  3.0054321445E0  7.6686156575E0  6.8562693298E-2  6.6452583832E-2  3.4925764916E-1
  5.37500E3  3.0086358920E0  7.6650094967E0  6.8762841356E-2  6.6641885968E-2  3.4949888183E-1
  5.38000E3  3.0118400710E0  7.6614083825E0  6.8963386773E-2  6.6831539223E-2  3.4974002650E-1
  5.38500E3  3.0150446811E0  7.6578123029E0  6.9164329966E-2  6.7021543859E-2  3.4998108357E-1
  5.39000E3  3.0182497222E0  7.6542212463E0  6.9365671355E-2  6.7211900138E-2  3.5022205346E-1
  5.39500E3  3.0214551937E0  7.6506352010E0  6.9567411357E-2  6.7402608319E-2  3.5046293657E-1
  5.40000E3  3.0246610954E0  7.6470541555E0  6.9769550392E-2  6.7593668663E-2  3.5070373333E-1
  5.40500E3  3.0278674269E0  7.6434780980E0  6.9972088878E-2  6.7785081432E-2  3.5094444413E-1
  5.41000E3  3.0310741880E0  7.6399070171E0  7.0175027235E-2  6.7976846883E-2  3.5118506939E-1
  5.41500E3  3.0342813782E0  7.6363409013E0  7.0378365880E-2  6.8168965278E-2  3.5142560953E-1
  5.42000E3  3.0374943403E0  7.6328325465E0  7.0582105232E-2  6.8361443817E-2  3.5166606494E-1
  5.42500E3  3.0407084471E0  7.6293360418E0  7.0786245711E-2  6.8554276813E-2  3.5190643603E-1
  5.43000E3  3.0439229892E0  7.6258443577E0  7.0990787736E-2  6.8747463609E-2  3.5214672322E-1
  5.43500E3  3.0471379664E0  7.6223574831E0  7.1195731724E-2  6.8941004463E-2  3.5238692692E-1
  5.44000E3  3.0503533782E0  7.6188754070E0  7.1401078097E-2  6.9134899633E-2  3.5262704752E-1
  5.44500E3  3.0535692243E0  7.6153981183E0  7.1606827272E-2  6.9329149377E-2  3.5286708544E-1
  5.45000E3  3.0567855044E0  7.6119256061E0  7.1812979669E-2  6.9523753953E-2  3.5310704108E-1
  5.45500E3  3.0600022182E0  7.6084578596E0  7.2019535706E-2  6.9718713618E-2  3.5334691485E-1
  5.46000E3  3.0632193652E0  7.6049948676E0  7.2226495804E-2  6.9914028628E-2  3.5358670716E-1
  5.46500E3  3.0664369453E0  7.6015366195E0  7.2433860382E-2  7.0109699240E-2  3.5382641840E-1
  5.47000E3  3.0696549579E0  7.5980831044E0  7.2641629858E-2  7.0305725711E-2  3.5406604899E-1
  5.47500E3  3.0728734028E0  7.5946343114E0  7.2849804653E-2  7.0502108296E-2  3.5430559934E-1
  5.48000E3  3.0760922797E0  7.5911902299E0  7.3058385185E-2  7.0698847250E-2  3.5454506983E-1
  5.48500E3  3.0793115882E0  7.5877508491E0  7.3267371875E-2  7.0895942830E-2  3.5478446089E-1
  5.49000E3  3.0825313279E0  7.5843161582E0  7.3476765141E-2  7.1093395288E-2  3.5502377290E-1
  5.49500E3  3.0857514986E0  7.5808861467E0  7.3686565404E-2  7.1291204880E-2  3.5526300629E-1
  5.50000E3  3.0889720999E0  7.5774608040E0  7.3896773084E-2  7.1489371861E-2  3.5550216143E-1
  5.50500E3  3.0921956247E0  7.5740656026E0  7.4107388598E-2  7.1687900105E-2  3.5574123875E-1
  5.51000E3  3.0954226832E0  7.5707066489E0  7.4318412369E-2  7.1886790806E-2  3.5598023865E-1
  5.51500E3  3.0986501779E0  7.5673522294E0  7.4529844815E-2  7.2086039737E-2  3.5621916151E-1
  5.52000E3  3.1018781084E0  7.5640023340E0  7.4741686356E-2  7.2285647150E-2  3.5645800775E-1
  5.52500E3  3.1051064744E0  7.5606569525E0  7.4953937412E-2  7.2485613299E-2  3.5669677777E-1
  5.53000E3  3.1083352756E0  7.5573160746E0  7.5166598403E-2  7.2685938434E-2  3.5693547196E-1
  5.53500E3  3.1115645116E0  7.5539796904E0  7.5379669750E-2  7.2886622810E-2  3.5717409074E-1
  5.54000E3  3.1147941822E0  7.5506477896E0  7.5593151872E-2  7.3087666677E-2  3.5741263449E-1
  5.54500E3  3.1180242869E0  7.5473203622E0  7.5807045189E-2  7.3289070286E-2  3.5765110362E-1
  5.55000E3  3.1212548255E0  7.5439973983E0  7.6021350121E-2  7.3490833889E-2  3.5788949852E-1
  5.55500E3  3.1244857975E0  7.5406788877E0  7.6236067089E-2  7.3692957736E-2  3.5812781960E-1
  5.56000E3  3.1277172028E0  7.5373648205E0  7.6451196514E-2  7.3895442078E-2  3.5836606726E-1
  5.56500E3  3.1309490409E0  7.5340551868E0  7.6666738814E-2  7.4098287164E-2  3.5860424189E-1
  5.57000E3  3.1341813115E0  7.5307499767E0  7.6882694411E-2  7.4301493243E-2  3.5884234390E-1
  5.57500E3  3.1374140142E0  7.5274491803E0  7.7099063725E-2  7.4505060566E-2  3.5908037367E-1
  5.58000E3  3.1406471489E0  7.5241527877E0  7.7315847177E-2  7.4708989380E-2  3.5931833159E-1
  5.58500E3  3.1438807150E0  7.5208607892E0  7.7533045187E-2  7.4913279934E-2  3.5955621797E-1
  5.59000E3  3.1471147124E0  7.5175731749E0  7.7750658175E-2  7.5117932477E-2  3.5979403317E-1
  5.59500E3  3.1503528778E0  7.5143296642E0  7.7968686562E-2  7.5322953383E-2  3.6003177752E-1
  5.60000E3  3.1535928740E0  7.5111052655E0  7.8187130770E-2  7.5528339132E-2  3.6026945134E-1
  5.60500E3  3.1568333063E0  7.5078851262E0  7.8405991218E-2  7.5734087695E-2  3.6050705498E-1
  5.61000E3  3.1600741745E0  7.5046692368E0  7.8625268327E-2  7.5940199319E-2  3.6074458877E-1
  5.61500E3  3.1633154781E0  7.5014575880E0  7.8844962518E-2  7.6146674250E-2  3.6098205305E-1
  5.62000E3  3.1665572170E0  7.4982501705E0  7.9065074213E-2  7.6353512735E-2  3.6121944814E-1
  5.62500E3  3.1697993906E0  7.4950469748E0  7.9285603831E-2  7.6560715020E-2  3.6145677439E-1
  5.63000E3  3.1730419989E0  7.4918479917E0  7.9506551795E-2  7.6768281350E-2  3.6169403213E-1
  5.63500E3  3.1762850413E0  7.4886532119E0  7.9727918524E-2  7.6976211971E-2  3.6193122168E-1
  5.64000E3  3.1795285175E0  7.4854626261E0  7.9949704440E-2  7.7184507128E-2  3.6216834339E-1
  5.64500E3  3.1827724273E0  7.4822762252E0  8.0171909964E-2  7.7393167065E-2  3.6240539759E-1
  5.65000E3  3.1860167703E0  7.4790940000E0  8.0394535518E-2  7.7602192026E-2  3.6264238461E-1
  5.65500E3  3.1892615463E0  7.4759159412E0  8.0617581522E-2  7.7811582255E-2  3.6287930478E-1
  5.66000E3  3.1925067547E0  7.4727420398E0  8.0841048397E-2  7.8021337995E-2  3.6311615844E-1
  5.66500E3  3.1957523954E0  7.4695722867E0  8.1064936566E-2  7.8231459491E-2  3.6335294591E-1
  5.67000E3  3.1989984680E0  7.4664066728E0  8.1289246449E-2  7.8441946983E-2  3.6358966754E-1
  5.67500E3  3.2022449722E0  7.4632451889E0  8.1513978467E-2  7.8652800715E-2  3.6382632365E-1
  5.68000E3  3.2054919077E0  7.4600878262E0  8.1739133043E-2  7.8864020928E-2  3.6406291458E-1
  5.68500E3  3.2087426607E0  7.4569723429E0  8.1964710598E-2  7.9075614168E-2  3.6429944065E-1
  5.69000E3  3.2119951316E0  7.4538751902E0  8.2190711553E-2  7.9287576832E-2  3.6453590220E-1
  5.69500E3  3.2152480382E0  7.4507820426E0  8.2417136329E-2  7.9499906787E-2  3.6477229956E-1
  5.70000E3  3.2185013801E0  7.4476928913E0  8.2643985349E-2  7.9712604273E-2  3.6500863307E-1
  5.70500E3  3.2217551570E0  7.4446077277E0  8.2871259035E-2  7.9925669530E-2  3.6524490304E-1
  5.71000E3  3.2250093686E0  7.4415265431E0  8.3098957807E-2  8.0139102799E-2  3.6548110983E-1
  5.71500E3  3.2282640146E0  7.4384493290E0  8.3327082088E-2  8.0352904320E-2  3.6571725374E-1
  5.72000E3  3.2315190945E0  7.4353760768E0  8.3555632300E-2  8.0567074332E-2  3.6595333512E-1
  5.72500E3  3.2347746082E0  7.4323067779E0  8.3784608864E-2  8.0781613074E-2  3.6618935430E-1
  5.73000E3  3.2380305553E0  7.4292414238E0  8.4014012203E-2  8.0996520784E-2  3.6642531160E-1
  5.73500E3  3.2412869354E0  7.4261800059E0  8.4243842738E-2  8.1211797702E-2  3.6666120737E-1
  5.74000E3  3.2445437483E0  7.4231225159E0  8.4474100891E-2  8.1427444064E-2  3.6689704192E-1
  5.74500E3  3.2478009936E0  7.4200689451E0  8.4704787085E-2  8.1643460109E-2  3.6713281558E-1
  5.75000E3  3.2510586710E0  7.4170192853E0  8.4935901742E-2  8.1859846073E-2  3.6736852870E-1
  5.75500E3  3.2543167803E0  7.4139735280E0  8.5167445284E-2  8.2076602194E-2  3.6760418159E-1
  5.76000E3  3.2575753209E0  7.4109316648E0  8.5399418132E-2  8.2293728708E-2  3.6783977459E-1
  5.76500E3  3.2608342928E0  7.4078936874E0  8.5631820710E-2  8.2511225850E-2  3.6807530802E-1
  5.77000E3  3.2640936955E0  7.4048595875E0  8.5864653440E-2  8.2729093856E-2  3.6831078222E-1
  5.77500E3  3.2673553470E0  7.4018508509E0  8.6097916744E-2  8.2947336833E-2  3.6854619752E-1
  5.78000E3  3.2706198173E0  7.3988741106E0  8.6331611044E-2  8.3165956285E-2  3.6878155424E-1
  5.78500E3  3.2738847222E0  7.3959011397E0  8.6565736764E-2  8.3384947392E-2  3.6901685272E-1
  5.79000E3  3.2771500615E0  7.3929319303E0  8.6800294324E-2  8.3604310389E-2  3.6925209328E-1
  5.79500E3  3.2804158348E0  7.3899664744E0  8.7035284149E-2  8.3824045511E-2  3.6948727625E-1
  5.80000E3  3.2836820417E0  7.3870047639E0  8.7270706661E-2  8.4044152991E-2  3.6972240196E-1
  5.80500E3  3.2869486821E0  7.3840467911E0  8.7506562282E-2  8.4264633063E-2  3.6995747074E-1
  5.81000E3  3.2902157555E0  7.3810925478E0  8.7742851435E-2  8.4485485959E-2  3.7019248292E-1
  5.81500E3  3.2934832616E0  7.3781420262E0  8.7979574543E-2  8.4706711913E-2  3.7042743883E-1
  5.82000E3  3.2967512002E0  7.3751952185E0  8.8216732029E-2  8.4928311156E-2  3.7066233879E-1
  5.82500E3  3.3000195708E0  7.3722521167E0  8.8454324315E-2  8.5150283922E-2  3.7089718329E-1
  5.83000E3  3.3032883733E0  7.3693127131E0  8.8692351825E-2  8.5372630440E-2  3.7113197306E-1
  5.83500E3  3.3065576073E0  7.3663769998E0  8.8930814981E-2  8.5595350942E-2  3.7136670836E-1
  5.84000E3  3.3098272724E0  7.3634449690E0  8.9169714206E-2  8.5818445659E-2  3.7160138943E-1
  5.84500E3  3.3130973684E0  7.3605166129E0  8.9409049924E-2  8.6041914822E-2  3.7183601651E-1
  5.85000E3  3.3163678950E0  7.3575919239E0  8.9648822557E-2  8.6265758659E-2  3.7207058984E-1
  5.85500E3  3.3196388517E0  7.3546708942E0  8.9889032529E-2  8.6489977402E-2  3.7230510965E-1
  5.86000E3  3.3229102385E0  7.3517535161E0  9.0129680263E-2  8.6714571278E-2  3.7253957620E-1
  5.86500E3  3.3261820548E0  7.3488397819E0  9.0370766182E-2  8.6939540517E-2  3.7277398971E-1
  5.87000E3  3.3294574596E0  7.3459697260E0  9.0612290710E-2  8.7164893150E-2  3.7300835043E-1
  5.87500E3  3.3327338752E0  7.3431105518E0  9.0854254269E-2  8.7390623110E-2  3.7324265860E-1
  5.88000E3  3.3360107237E0  7.3402549213E0  9.1096657284E-2  8.7616729206E-2  3.7347691445E-1
  5.88500E3  3.3392880046E0  7.3374028272E0  9.1339500177E-2  8.7843211664E-2  3.7371111822E-1
  5.89000E3  3.3425657178E0  7.3345542620E0  9.1582783372E-2  8.8070070712E-2  3.7394527017E-1
  5.89500E3  3.3458438630E0  7.3317092183E0  9.1826507293E-2  8.8297306578E-2  3.7417937051E-1
  5.90000E3  3.3491224397E0  7.3288676890E0  9.2070672362E-2  8.8524919487E-2  3.7441341950E-1
  5.90500E3  3.3524014478E0  7.3260296666E0  9.2315279005E-2  8.8752909665E-2  3.7464741738E-1
  5.91000E3  3.3556808868E0  7.3231951438E0  9.2560327644E-2  8.8981277339E-2  3.7488136437E-1
  5.91500E3  3.3589607565E0  7.3203641134E0  9.2805818703E-2  8.9210022734E-2  3.7511526073E-1
  5.92000E3  3.3622410566E0  7.3175365681E0  9.3051752607E-2  8.9439146075E-2  3.7534910669E-1
  5.92500E3  3.3655217868E0  7.3147125007E0  9.3298129778E-2  8.9668647585E-2  3.7558290250E-1
  5.93000E3  3.3688029467E0  7.3118919041E0  9.3544950640E-2  8.9898527490E-2  3.7581664839E-1
  5.93500E3  3.3720845361E0  7.3090747709E0  9.3792215619E-2  9.0128786013E-2  3.7605034459E-1
  5.94000E3  3.3753665546E0  7.3062610940E0  9.4039925136E-2  9.0359423378E-2  3.7628399136E-1
  5.94500E3  3.3786490020E0  7.3034508664E0  9.4288079618E-2  9.0590439806E-2  3.7651758894E-1
  5.95000E3  3.3819318780E0  7.3006440808E0  9.4536679486E-2  9.0821835522E-2  3.7675113755E-1
  5.95500E3  3.3852151821E0  7.2978407302E0  9.4785725167E-2  9.1053610747E-2  3.7698463744E-1
  5.96000E3  3.3884989142E0  7.2950408075E0  9.5035217083E-2  9.1285765702E-2  3.7721808886E-1
  5.96500E3  3.3917862165E0  7.2922875976E0  9.5285155659E-2  9.1518309716E-2  3.7745149204E-1
  5.97000E3  3.3950740843E0  7.2895395853E0  9.5535541319E-2  9.1751234381E-2  3.7768484722E-1
  5.97500E3  3.3983623827E0  7.2867949079E0  9.5786374488E-2  9.1984539529E-2  3.7791815464E-1
  5.98000E3  3.4016511114E0  7.2840535584E0  9.6037655590E-2  9.2218225382E-2  3.7815141454E-1
  5.98500E3  3.4049402701E0  7.2813155301E0  9.6289385049E-2  9.2452292159E-2  3.7838462716E-1
  5.99000E3  3.4082298585E0  7.2785808161E0  9.6541563289E-2  9.2686740081E-2  3.7861779275E-1
  5.99500E3  3.4115198764E0  7.2758494098E0  9.6794190736E-2  9.2921569366E-2  3.7885091154E-1
  6.00000E3  3.4148103233E0  7.2731213043E0  9.7047267813E-2  9.3156780234E-2  3.7908398377E-1
  6.00500E3  3.4181011991E0  7.2703964929E0  9.7302909820E-2  9.3394321287E-2  3.7931700969E-1
  6.01000E3  3.4213925034E0  7.2676749689E0  9.7559011629E-2  9.3632252293E-2  3.7954998952E-1
  6.01500E3  3.4246842359E0  7.2649567256E0  9.7815573683E-2  9.3870573482E-2  3.7978292353E-1
  6.02000E3  3.4279763962E0  7.2622417563E0  9.8072596425E-2  9.4109285083E-2  3.8001581194E-1
  6.02500E3  3.4312689842E0  7.2595300544E0  9.8330080300E-2  9.4348387326E-2  3.8024865499E-1
  6.03000E3  3.4345619995E0  7.2568216132E0  9.8588025751E-2  9.4587880438E-2  3.8048145293E-1
  6.03500E3  3.4378554418E0  7.2541164261E0  9.8846433221E-2  9.4827764648E-2  3.8071420600E-1
  6.04000E3  3.4411493109E0  7.2514144865E0  9.9105303155E-2  9.5068040182E-2  3.8094691443E-1
  6.04500E3  3.4444436063E0  7.2487157879E0  9.9364635996E-2  9.5308707269E-2  3.8117957847E-1
  6.05000E3  3.4477383278E0  7.2460203236E0  9.9624432187E-2  9.5549766134E-2  3.8141219837E-1
  6.05500E3  3.4510334752E0  7.2433280871E0  9.9884692174E-2  9.5791217005E-2  3.8164477435E-1
  6.06000E3  3.4543313272E0  7.2406721770E0  1.0014541640E-1  9.6033067691E-2  3.8187730667E-1
  6.06500E3  3.4576302941E0  7.2380293987E0  1.0040660531E-1  9.6275313201E-2  3.8210979556E-1
  6.07000E3  3.4609296891E0  7.2353897616E0  1.0066825934E-1  9.6517951486E-2  3.8234224126E-1
  6.07500E3  3.4642295120E0  7.2327532594E0  1.0093037895E-1  9.6760982770E-2  3.8257464402E-1
  6.08000E3  3.4675297625E0  7.2301198857E0  1.0119296457E-1  9.7004407278E-2  3.8280700407E-1
  6.08500E3  3.4708304401E0  7.2274896344E0  1.0145601665E-1  9.7248225235E-2  3.8303932167E-1
  6.09000E3  3.4741315448E0  7.2248624992E0  1.0171953564E-1  9.7492436864E-2  3.8327159704E-1
  6.09500E3  3.4774330761E0  7.2222384737E0  1.0198352197E-1  9.7737042389E-2  3.8350383044E-1
  6.10000E3  3.4807350337E0  7.2196175519E0  1.0224797609E-1  9.7982042032E-2  3.8373602210E-1
  6.10500E3  3.4840374174E0  7.2169997274E0  1.0251289846E-1  9.8227436017E-2  3.8396817226E-1
  6.11000E3  3.4873402269E0  7.2143849940E0  1.0277828950E-1  9.8473224564E-2  3.8420028117E-1
  6.11500E3  3.4906434619E0  7.2117733457E0  1.0304414967E-1  9.8719407897E-2  3.8443234907E-1
  6.12000E3  3.4939471221E0  7.2091647763E0  1.0331047941E-1  9.8965986235E-2  3.8466437620E-1
  6.12500E3  3.4972512072E0  7.2065592795E0  1.0357727917E-1  9.9212959801E-2  3.8489636281E-1
  6.13000E3  3.5005557168E0  7.2039568493E0  1.0384454939E-1  9.9460328813E-2  3.8512830912E-1
  6.13500E3  3.5038606508E0  7.2013574796E0  1.0411229051E-1  9.9708093493E-2  3.8536021540E-1
  6.14000E3  3.5071660088E0  7.1987611643E0  1.0438050298E-1  9.9956254060E-2  3.8559208188E-1
  6.14500E3  3.5104717906E0  7.1961678973E0  1.0464918725E-1  1.0020481073E-1  3.8582390880E-1
  6.15000E3  3.5137779957E0  7.1935776725E0  1.0491834376E-1  1.0045376373E-1  3.8605569640E-1
  6.15500E3  3.5170853705E0  7.1910015532E0  1.0518797295E-1  1.0070311605E-1  3.8628744493E-1
  6.16000E3  3.5203951985E0  7.1884585054E0  1.0545807528E-1  1.0095287276E-1  3.8651915463E-1
  6.16500E3  3.5237054521E0  7.1859184192E0  1.0572865117E-1  1.0120302654E-1  3.8675082575E-1
  6.17000E3  3.5270161309E0  7.1833812886E0  1.0599970109E-1  1.0145357761E-1  3.8698245852E-1
  6.17500E3  3.5303272347E0  7.1808471080E0  1.0627122548E-1  1.0170452619E-1  3.8721405319E-1
  6.18000E3  3.5336387631E0  7.1783158715E0  1.0654322478E-1  1.0195587250E-1  3.8744561000E-1
  6.18500E3  3.5369507159E0  7.1757875732E0  1.0681569943E-1  1.0220761674E-1  3.8767712920E-1
  6.19000E3  3.5402630928E0  7.1732622074E0  1.0708864989E-1  1.0245975915E-1  3.8790861103E-1
  6.19500E3  3.5435758935E0  7.1707397683E0  1.0736207659E-1  1.0271229992E-1  3.8814005573E-1
  6.20000E3  3.5468891177E0  7.1682202503E0  1.0763597999E-1  1.0296523929E-1  3.8837146355E-1
  6.20500E3  3.5502027651E0  7.1657036474E0  1.0791036052E-1  1.0321857745E-1  3.8860283473E-1
  6.21000E3  3.5535168355E0  7.1631899541E0  1.0818521864E-1  1.0347231463E-1  3.8883416951E-1
  6.21500E3  3.5568313285E0  7.1606791646E0  1.0846055479E-1  1.0372645104E-1  3.8906546814E-1
  6.22000E3  3.5601462438E0  7.1581712732E0  1.0873636942E-1  1.0398098689E-1  3.8929673087E-1
  6.22500E3  3.5634615813E0  7.1556662743E0  1.0901266297E-1  1.0423592240E-1  3.8952795792E-1
  6.23000E3  3.5667773405E0  7.1531641622E0  1.0928943588E-1  1.0449125777E-1  3.8975914956E-1
  6.23500E3  3.5700935212E0  7.1506649313E0  1.0956668861E-1  1.0474699322E-1  3.8999030603E-1
  6.24000E3  3.5734101232E0  7.1481685759E0  1.0984442160E-1  1.0500312896E-1  3.9022142756E-1
  6.24500E3  3.5767271461E0  7.1456750904E0  1.1012263530E-1  1.0525966520E-1  3.9045251441E-1
  6.25000E3  3.5800445897E0  7.1431844693E0  1.1040133015E-1  1.0551660216E-1  3.9068356681E-1
  6.25500E3  3.5833636326E0  7.1407145995E0  1.1068050660E-1  1.0577394498E-1  3.9091458503E-1
  6.26000E3  3.5866845062E0  7.1382689168E0  1.1096016509E-1  1.0603169493E-1  3.9114556928E-1
  6.26500E3  3.5900058023E0  7.1358260235E0  1.1124030607E-1  1.0628984632E-1  3.9137651984E-1
  6.27000E3  3.5933275206E0  7.1333859140E0  1.1152092999E-1  1.0654839936E-1  3.9160743693E-1
  6.27500E3  3.5966496609E0  7.1309485830E0  1.1180203729E-1  1.0680735425E-1  3.9183832081E-1
  6.28000E3  3.5999722229E0  7.1285140251E0  1.1208362843E-1  1.0706671121E-1  3.9206917172E-1
  6.28500E3  3.6032952063E0  7.1260822349E0  1.1236570384E-1  1.0732647044E-1  3.9229998990E-1
  6.29000E3  3.6066186108E0  7.1236532072E0  1.1264826397E-1  1.0758663216E-1  3.9253077559E-1
  6.29500E3  3.6099424362E0  7.1212269366E0  1.1293130927E-1  1.0784719656E-1  3.9276152884E-1
  6.30000E3  3.6132666821E0  7.1188034177E0  1.1321484019E-1  1.0810816385E-1  3.9299224977E-1
  6.30500E3  3.6165913482E0  7.1163826453E0  1.1349885718E-1  1.0836953425E-1  3.9322293852E-1
  6.31000E3  3.6199164344E0  7.1139646141E0  1.1378336067E-1  1.0863130796E-1  3.9345359523E-1
  6.31500E3  3.6232419403E0  7.1115493187E0  1.1406835112E-1  1.0889348517E-1  3.9368422005E-1
  6.32000E3  3.6265678656E0  7.1091367540E0  1.1435382898E-1  1.0915606610E-1  3.9391481312E-1
  6.32500E3  3.6298942101E0  7.1067269148E0  1.1463979468E-1  1.0941905095E-1  3.9414537458E-1
  6.33000E3  3.6332209734E0  7.1043197957E0  1.1492624869E-1  1.0968243993E-1  3.9437590458E-1
  6.33500E3  3.6365481553E0  7.1019153915E0  1.1521319144E-1  1.0994623323E-1  3.9460640326E-1
  6.34000E3  3.6398757556E0  7.0995136971E0  1.1550062338E-1  1.1021043106E-1  3.9483687077E-1
  6.34500E3  3.6432037739E0  7.0971147073E0  1.1578854496E-1  1.1047503363E-1  3.9506730725E-1
  6.35000E3  3.6465322100E0  7.0947184168E0  1.1607695663E-1  1.1074004113E-1  3.9529771284E-1
  6.35500E3  3.6498618391E0  7.0923369336E0  1.1636585883E-1  1.1100545745E-1  3.9552808769E-1
  6.36000E3  3.6531935103E0  7.0899834556E0  1.1665525201E-1  1.1127128689E-1  3.9575843195E-1
  6.36500E3  3.6565256009E0  7.0876326071E0  1.1694513662E-1  1.1153752197E-1  3.9598874576E-1
  6.37000E3  3.6598581107E0  7.0852843832E0  1.1723551311E-1  1.1180416290E-1  3.9621902926E-1
  6.37500E3  3.6631910394E0  7.0829387789E0  1.1752638193E-1  1.1207120986E-1  3.9644928260E-1
  6.38000E3  3.6665243867E0  7.0805957891E0  1.1781774351E-1  1.1233866307E-1  3.9667950593E-1
  6.38500E3  3.6698581523E0  7.0782554090E0  1.1810959831E-1  1.1260652272E-1  3.9690969939E-1
  6.39000E3  3.6731923359E0  7.0759176335E0  1.1840194678E-1  1.1287478900E-1  3.9713986312E-1
  6.39500E3  3.6765269373E0  7.0735824577E0  1.1869478937E-1  1.1314346213E-1  3.9736999728E-1
  6.40000E3  3.6798619562E0  7.0712498768E0  1.1898812652E-1  1.1341254229E-1  3.9760010201E-1
  6.40500E3  3.6831973923E0  7.0689198857E0  1.1928195868E-1  1.1368202969E-1  3.9783017745E-1
  6.41000E3  3.6865332454E0  7.0665924797E0  1.1957628629E-1  1.1395192452E-1  3.9806022376E-1
  6.41500E3  3.6898695152E0  7.0642676538E0  1.1987110981E-1  1.1422222698E-1  3.9829024108E-1
  6.42000E3  3.6932062013E0  7.0619454032E0  1.2016642969E-1  1.1449293726E-1  3.9852022955E-1
  6.42500E3  3.6965433036E0  7.0596257230E0  1.2046224637E-1  1.1476405556E-1  3.9875018933E-1
  6.43000E3  3.6998808217E0  7.0573086083E0  1.2075856030E-1  1.1503558208E-1  3.9898012056E-1
  6.43500E3  3.7032187555E0  7.0549940544E0  1.2105537193E-1  1.1530751701E-1  3.9921002339E-1
  6.44000E3  3.7065571045E0  7.0526820564E0  1.2135268171E-1  1.1557986054E-1  3.9943989796E-1
  6.44500E3  3.7098958686E0  7.0503726096E0  1.2165049008E-1  1.1585261286E-1  3.9966974443E-1
  6.45000E3  3.7132350475E0  7.0480657090E0  1.2194879749E-1  1.1612577419E-1  3.9989956293E-1
  6.45500E3  3.7165746409E0  7.0457613500E0  1.2224760440E-1  1.1639934469E-1  4.0012935363E-1
  6.46000E3  3.7199165642E0  7.0434904831E0  1.2254691125E-1  1.1667333495E-1  4.0035911667E-1
  6.46500E3  3.7232591977E0  7.0412268546E0  1.2284671849E-1  1.1694773647E-1  4.0058885220E-1
  6.47000E3  3.7266022473E0  7.0389657028E0  1.2314702656E-1  1.1722254786E-1  4.0081856036E-1
  6.47500E3  3.7299457125E0  7.0367070229E0  1.2344783592E-1  1.1749776931E-1  4.0104824130E-1
  6.48000E3  3.7332895931E0  7.0344508105E0  1.2374914702E-1  1.1777340100E-1  4.0127789518E-1
  6.48500E3  3.7366338889E0  7.0321970609E0  1.2405096030E-1  1.1804944314E-1  4.0150752214E-1
  6.49000E3  3.7399785995E0  7.0299457695E0  1.2435327621E-1  1.1832589591E-1  4.0173712234E-1
  6.49500E3  3.7433237248E0  7.0276969318E0  1.2465609521E-1  1.1860275950E-1  4.0196669591E-1
  6.50000E3  3.7466692644E0  7.0254505432E0  1.2495941774E-1  1.1888003410E-1  4.0219624302E-1
  6.50500E3  3.7500152181E0  7.0232065992E0  1.2526324424E-1  1.1915771989E-1  4.0242576381E-1
  6.51000E3  3.7533615855E0  7.0209650951E0  1.2556757517E-1  1.1943581708E-1  4.0265525843E-1
  6.51500E3  3.7567083666E0  7.0187260266E0  1.2587241099E-1  1.1971432584E-1  4.0288472704E-1
  6.52000E3  3.7600555609E0  7.0164893890E0  1.2617775212E-1  1.1999324636E-1  4.0311416978E-1
  6.52500E3  3.7634031682E0  7.0142551779E0  1.2648359904E-1  1.2027257883E-1  4.0334358680E-1
  6.53000E3  3.7667511882E0  7.0120233888E0  1.2678995218E-1  1.2055232343E-1  4.0357297826E-1
  6.53500E3  3.7700996207E0  7.0097940172E0  1.2709681199E-1  1.2083248036E-1  4.0380234430E-1
  6.54000E3  3.7734484655E0  7.0075670587E0  1.2740417893E-1  1.2111304980E-1  4.0403168508E-1
  6.54500E3  3.7767977222E0  7.0053425088E0  1.2771205344E-1  1.2139403192E-1  4.0426100074E-1
