#[MATERIAL DEFINITION FOR MC-GPU: interaction mean free path and sampling data from PENELOPE 2018]
#[MATERIAL NAME]
# LEAD  (82)                                                    
#[NOMINAL DENSITY (g/cm^3)]
#  11.35000000
#[NUMBER OF DATA VALUES]
#  23002
#[MEAN FREE PATHS (cm) (ie, average distance between interactions)]
#[Energy (eV)     | Rayleigh        | Compton         | Photoelectric   | TOTAL (+pair prod) (cm) | Rayleigh: max cumul prob F^2]
  5.0000000000E+03  1.1472070820E-02  2.9612749739E+00  1.2618153956E-04  1.2480350533E-04  1.1107807496E-01
  5.0050000000E+03  1.1477648981E-02  2.9590161456E+00  1.2649226731E-04  1.2510813407E-04  1.1123535186E-01
  5.0100000000E+03  1.1483224281E-02  2.9567612931E+00  1.2680344884E-04  1.2541319576E-04  1.1139263486E-01
  5.0150000000E+03  1.1488794277E-02  2.9545104056E+00  1.2711508434E-04  1.2571869029E-04  1.1154992384E-01
  5.0200000000E+03  1.1494359960E-02  2.9522634721E+00  1.2742717404E-04  1.2602461791E-04  1.1170721868E-01
  5.0250000000E+03  1.1499922795E-02  2.9500204817E+00  1.2773971813E-04  1.2633097897E-04  1.1186451927E-01
  5.0300000000E+03  1.1505482785E-02  2.9477814236E+00  1.2805271683E-04  1.2663777361E-04  1.1202182548E-01
  5.0350000000E+03  1.1511039935E-02  2.9455462870E+00  1.2836617035E-04  1.2694500201E-04  1.1217913721E-01
  5.0400000000E+03  1.1516594249E-02  2.9433150612E+00  1.2868007889E-04  1.2725266431E-04  1.1233645435E-01
  5.0450000000E+03  1.1522145732E-02  2.9410877354E+00  1.2899444266E-04  1.2756076068E-04  1.1249377676E-01
  5.0500000000E+03  1.1527694388E-02  2.9388642989E+00  1.2930926187E-04  1.2786929127E-04  1.1265110435E-01
  5.0550000000E+03  1.1533240221E-02  2.9366447413E+00  1.2962453673E-04  1.2817825625E-04  1.1280843700E-01
  5.0600000000E+03  1.1538782400E-02  2.9344290517E+00  1.2994026744E-04  1.2848765565E-04  1.1296577460E-01
  5.0650000000E+03  1.1544320213E-02  2.9322172198E+00  1.3025645422E-04  1.2879748956E-04  1.1312311703E-01
  5.0700000000E+03  1.1549855215E-02  2.9300092349E+00  1.3057309727E-04  1.2910775832E-04  1.1328046419E-01
  5.0750000000E+03  1.1555387412E-02  2.9278050866E+00  1.3089019680E-04  1.2941846208E-04  1.1343781595E-01
  5.0800000000E+03  1.1560916806E-02  2.9256047645E+00  1.3120775301E-04  1.2972960101E-04  1.1359517205E-01
  5.0850000000E+03  1.1566443403E-02  2.9234152540E+00  1.3152576611E-04  1.3004117527E-04  1.1375253193E-01
  5.0900000000E+03  1.1571967207E-02  2.9212302097E+00  1.3184423632E-04  1.3035318501E-04  1.1390989545E-01
  5.0950000000E+03  1.1577488221E-02  2.9190489415E+00  1.3216316383E-04  1.3066563038E-04  1.1406726248E-01
  5.1000000000E+03  1.1583006450E-02  2.9168714392E+00  1.3248254886E-04  1.3097851154E-04  1.1422463289E-01
  5.1050000000E+03  1.1588521898E-02  2.9146976927E+00  1.3280239160E-04  1.3129182864E-04  1.1438200658E-01
  5.1100000000E+03  1.1594039556E-02  2.9125276917E+00  1.3312269228E-04  1.3160558249E-04  1.1453938341E-01
  5.1150000000E+03  1.1599554492E-02  2.9103614261E+00  1.3344345109E-04  1.3191977260E-04  1.1469676327E-01
  5.1200000000E+03  1.1605066659E-02  2.9081988860E+00  1.3376466824E-04  1.3223439913E-04  1.1485414603E-01
  5.1250000000E+03  1.1610576061E-02  2.9060400611E+00  1.3408634393E-04  1.3254946222E-04  1.1501153157E-01
  5.1300000000E+03  1.1616082703E-02  2.9038849417E+00  1.3440847838E-04  1.3286496204E-04  1.1516891977E-01
  5.1350000000E+03  1.1621586587E-02  2.9017335176E+00  1.3473107179E-04  1.3318089875E-04  1.1532631051E-01
  5.1400000000E+03  1.1627087720E-02  2.8995857789E+00  1.3505412436E-04  1.3349727248E-04  1.1548370367E-01
  5.1450000000E+03  1.1632586103E-02  2.8974417159E+00  1.3537763631E-04  1.3381408341E-04  1.1564109913E-01
  5.1500000000E+03  1.1638081743E-02  2.8953013185E+00  1.3570160783E-04  1.3413133167E-04  1.1579849678E-01
  5.1550000000E+03  1.1643573096E-02  2.8931645771E+00  1.3602603914E-04  1.3444901723E-04  1.1595589650E-01
  5.1600000000E+03  1.1649060407E-02  2.8910314818E+00  1.3635093043E-04  1.3476714027E-04  1.1611329816E-01
  5.1650000000E+03  1.1654544985E-02  2.8889061141E+00  1.3667628192E-04  1.3508570111E-04  1.1627070165E-01
  5.1700000000E+03  1.1660026835E-02  2.8867876543E+00  1.3700209381E-04  1.3540469991E-04  1.1642810685E-01
  5.1750000000E+03  1.1665505961E-02  2.8846727935E+00  1.3732836630E-04  1.3572413683E-04  1.1658551365E-01
  5.1800000000E+03  1.1670982366E-02  2.8825615222E+00  1.3765509960E-04  1.3604401200E-04  1.1674292193E-01
  5.1850000000E+03  1.1676456055E-02  2.8804538309E+00  1.3798229392E-04  1.3636432559E-04  1.1690033158E-01
  5.1900000000E+03  1.1681927032E-02  2.8783497099E+00  1.3830994946E-04  1.3668507775E-04  1.1705774247E-01
  5.1950000000E+03  1.1687395300E-02  2.8762491498E+00  1.3863806642E-04  1.3700626863E-04  1.1721515450E-01
  5.2000000000E+03  1.1692865263E-02  2.8741521412E+00  1.3896664501E-04  1.3732789898E-04  1.1737256755E-01
  5.2050000000E+03  1.1698877989E-02  2.8720586747E+00  1.3929568544E-04  1.3765004389E-04  1.1752998151E-01
  5.2100000000E+03  1.1704888029E-02  2.8699687409E+00  1.3962518790E-04  1.3797262853E-04  1.1768739626E-01
  5.2150000000E+03  1.1710895388E-02  2.8678823304E+00  1.3995515261E-04  1.3829565308E-04  1.1784481168E-01
  5.2200000000E+03  1.1716900069E-02  2.8657994340E+00  1.4028557977E-04  1.3861911767E-04  1.1800222768E-01
  5.2250000000E+03  1.1722902075E-02  2.8637200423E+00  1.4061646958E-04  1.3894302247E-04  1.1815964413E-01
  5.2300000000E+03  1.1728901410E-02  2.8616441461E+00  1.4094782224E-04  1.3926736762E-04  1.1831706092E-01
  5.2350000000E+03  1.1734898079E-02  2.8595717362E+00  1.4127963796E-04  1.3959215329E-04  1.1847447794E-01
  5.2400000000E+03  1.1740892084E-02  2.8575028035E+00  1.4161191695E-04  1.3991737963E-04  1.1863189508E-01
  5.2450000000E+03  1.1746883430E-02  2.8554373387E+00  1.4194465941E-04  1.4024304678E-04  1.1878931223E-01
  5.2500000000E+03  1.1753110025E-02  2.8533819584E+00  1.4227786553E-04  1.4056918895E-04  1.1894672927E-01
  5.2550000000E+03  1.1759712450E-02  2.8513304880E+00  1.4261153554E-04  1.4089582682E-04  1.1910414611E-01
  5.2600000000E+03  1.1766312298E-02  2.8492824413E+00  1.4294566962E-04  1.4122290662E-04  1.1926156263E-01
  5.2650000000E+03  1.1772909575E-02  2.8472378096E+00  1.4328026798E-04  1.4155042849E-04  1.1941897871E-01
  5.2700000000E+03  1.1779504284E-02  2.8451965837E+00  1.4361533083E-04  1.4187839259E-04  1.1957639426E-01
  5.2750000000E+03  1.1786096428E-02  2.8431587549E+00  1.4395085836E-04  1.4220679908E-04  1.1973380916E-01
  5.2800000000E+03  1.1792686009E-02  2.8411243143E+00  1.4428685079E-04  1.4253564811E-04  1.1989122331E-01
  5.2850000000E+03  1.1799273033E-02  2.8390932530E+00  1.4462330831E-04  1.4286493983E-04  1.2004863660E-01
  5.2900000000E+03  1.1805857502E-02  2.8370655622E+00  1.4496023113E-04  1.4319467440E-04  1.2020604891E-01
  5.2950000000E+03  1.1812439420E-02  2.8350412332E+00  1.4529761945E-04  1.4352485197E-04  1.2036346015E-01
  5.3000000000E+03  1.1819017372E-02  2.8330202572E+00  1.4563547348E-04  1.4385547249E-04  1.2052087021E-01
  5.3050000000E+03  1.1825592093E-02  2.8310026255E+00  1.4597379341E-04  1.4418653621E-04  1.2067827898E-01
  5.3100000000E+03  1.1832164272E-02  2.8289883295E+00  1.4631257944E-04  1.4451804340E-04  1.2083568636E-01
  5.3150000000E+03  1.1838733914E-02  2.8269773604E+00  1.4665183179E-04  1.4484999420E-04  1.2099309224E-01
  5.3200000000E+03  1.1845301021E-02  2.8249697097E+00  1.4699155065E-04  1.4518238877E-04  1.2115049652E-01
  5.3250000000E+03  1.1851865596E-02  2.8229653688E+00  1.4733173622E-04  1.4551522726E-04  1.2130789909E-01
  5.3300000000E+03  1.1858427643E-02  2.8209646324E+00  1.4767238871E-04  1.4584850982E-04  1.2146529985E-01
  5.3350000000E+03  1.1864987165E-02  2.8189737154E+00  1.4801350832E-04  1.4618223663E-04  1.2162269870E-01
  5.3400000000E+03  1.1871544166E-02  2.8169860665E+00  1.4835509525E-04  1.4651640782E-04  1.2178009553E-01
  5.3450000000E+03  1.1878098649E-02  2.8150016774E+00  1.4869714970E-04  1.4685102355E-04  1.2193749024E-01
  5.3500000000E+03  1.1884652066E-02  2.8130205396E+00  1.4903967188E-04  1.4718608418E-04  1.2209488273E-01
  5.3550000000E+03  1.1891203184E-02  2.8110426448E+00  1.4938266198E-04  1.4752158968E-04  1.2225227289E-01
  5.3600000000E+03  1.1897751795E-02  2.8090679847E+00  1.4972612020E-04  1.4785754017E-04  1.2240966063E-01
  5.3650000000E+03  1.1904297901E-02  2.8070965510E+00  1.5007004676E-04  1.4819393580E-04  1.2256704585E-01
  5.3700000000E+03  1.1910841505E-02  2.8051283353E+00  1.5041444185E-04  1.4853077673E-04  1.2272442843E-01
  5.3750000000E+03  1.1917382612E-02  2.8031633295E+00  1.5075930566E-04  1.4886806310E-04  1.2288180829E-01
  5.3800000000E+03  1.1923921224E-02  2.8012015254E+00  1.5110463841E-04  1.4920579508E-04  1.2303918532E-01
  5.3850000000E+03  1.1930457344E-02  2.7992429147E+00  1.5145044029E-04  1.4954397279E-04  1.2319655943E-01
  5.3900000000E+03  1.1936990976E-02  2.7972874893E+00  1.5179671150E-04  1.4988259641E-04  1.2335393051E-01
  5.3950000000E+03  1.1943522124E-02  2.7953352410E+00  1.5214345225E-04  1.5022166608E-04  1.2351129846E-01
  5.4000000000E+03  1.1950054089E-02  2.7933861619E+00  1.5249066273E-04  1.5056118248E-04  1.2366866319E-01
  5.4050000000E+03  1.1956583651E-02  2.7914402437E+00  1.5283834315E-04  1.5090114524E-04  1.2382602461E-01
  5.4100000000E+03  1.1963110738E-02  2.7894974785E+00  1.5318649370E-04  1.5124155450E-04  1.2398338260E-01
  5.4150000000E+03  1.1969635354E-02  2.7875578582E+00  1.5353511459E-04  1.5158241042E-04  1.2414073707E-01
  5.4200000000E+03  1.1976157502E-02  2.7856271828E+00  1.5388420602E-04  1.5192371317E-04  1.2429808794E-01
  5.4250000000E+03  1.1982677184E-02  2.7837003847E+00  1.5423376818E-04  1.5226546288E-04  1.2445543509E-01
  5.4300000000E+03  1.1989194405E-02  2.7817766927E+00  1.5458380128E-04  1.5260765969E-04  1.2461277844E-01
  5.4350000000E+03  1.1995709167E-02  2.7798560987E+00  1.5493430551E-04  1.5295030375E-04  1.2477011789E-01
  5.4400000000E+03  1.2002221474E-02  2.7779385949E+00  1.5528528108E-04  1.5329339522E-04  1.2492745334E-01
  5.4450000000E+03  1.2008731328E-02  2.7760241736E+00  1.5563672819E-04  1.5363693425E-04  1.2508478471E-01
  5.4500000000E+03  1.2015236416E-02  2.7741128270E+00  1.5598864703E-04  1.5398092060E-04  1.2524211188E-01
  5.4550000000E+03  1.2021739043E-02  2.7722045473E+00  1.5634103781E-04  1.5432535479E-04  1.2539943478E-01
  5.4600000000E+03  1.2028239228E-02  2.7702993268E+00  1.5669390072E-04  1.5467023699E-04  1.2555675330E-01
  5.4650000000E+03  1.2034736972E-02  2.7683971577E+00  1.5704723597E-04  1.5501556733E-04  1.2571406736E-01
  5.4700000000E+03  1.2041232279E-02  2.7664980325E+00  1.5740104374E-04  1.5536134597E-04  1.2587137685E-01
  5.4750000000E+03  1.2047725153E-02  2.7646019435E+00  1.5775532426E-04  1.5570757306E-04  1.2602868169E-01
  5.4800000000E+03  1.2054215596E-02  2.7627088830E+00  1.5811007770E-04  1.5605424873E-04  1.2618598179E-01
  5.4850000000E+03  1.2060703612E-02  2.7608188435E+00  1.5846530427E-04  1.5640137315E-04  1.2634327705E-01
  5.4900000000E+03  1.2067189204E-02  2.7589318173E+00  1.5882100417E-04  1.5674894646E-04  1.2650056738E-01
  5.4950000000E+03  1.2073672374E-02  2.7570477970E+00  1.5917717760E-04  1.5709696880E-04  1.2665785269E-01
  5.5000000000E+03  1.2080150105E-02  2.7551667751E+00  1.5953382476E-04  1.5744543981E-04  1.2681513288E-01
  5.5050000000E+03  1.2086625150E-02  2.7532915859E+00  1.5989400504E-04  1.5779733961E-04  1.2697240788E-01
  5.5100000000E+03  1.2093097783E-02  2.7514228825E+00  1.6025467040E-04  1.5814969930E-04  1.2712967759E-01
  5.5150000000E+03  1.2099568007E-02  2.7495571406E+00  1.6061582105E-04  1.5850251903E-04  1.2728694191E-01
  5.5200000000E+03  1.2106035824E-02  2.7476943529E+00  1.6097745721E-04  1.5885579896E-04  1.2744420076E-01
  5.5250000000E+03  1.2112501239E-02  2.7458345121E+00  1.6133957909E-04  1.5920953924E-04  1.2760145405E-01
  5.5300000000E+03  1.2118964253E-02  2.7439776108E+00  1.6170218690E-04  1.5956374003E-04  1.2775870170E-01
  5.5350000000E+03  1.2125424870E-02  2.7421236417E+00  1.6206528086E-04  1.5991840150E-04  1.2791594360E-01
  5.5400000000E+03  1.2131883092E-02  2.7402725975E+00  1.6242886116E-04  1.6027352380E-04  1.2807317968E-01
  5.5450000000E+03  1.2138338924E-02  2.7384244711E+00  1.6279292804E-04  1.6062910709E-04  1.2823040985E-01
  5.5500000000E+03  1.2144793731E-02  2.7365792552E+00  1.6315748169E-04  1.6098515177E-04  1.2838763402E-01
  5.5550000000E+03  1.2151246612E-02  2.7347369425E+00  1.6352252232E-04  1.6134165783E-04  1.2854485210E-01
  5.5600000000E+03  1.2157697112E-02  2.7328975259E+00  1.6388805016E-04  1.6169862535E-04  1.2870206401E-01
  5.5650000000E+03  1.2164145233E-02  2.7310609983E+00  1.6425406541E-04  1.6205605450E-04  1.2885926965E-01
  5.5700000000E+03  1.2170590979E-02  2.7292273525E+00  1.6462056829E-04  1.6241394543E-04  1.2901646896E-01
  5.5750000000E+03  1.2177034352E-02  2.7273965814E+00  1.6498755899E-04  1.6277229829E-04  1.2917366183E-01
  5.5800000000E+03  1.2183475355E-02  2.7255686780E+00  1.6535503775E-04  1.6313111324E-04  1.2933084818E-01
  5.5850000000E+03  1.2189913992E-02  2.7237436352E+00  1.6572300475E-04  1.6349039044E-04  1.2948802793E-01
  5.5900000000E+03  1.2196350265E-02  2.7219214459E+00  1.6609146022E-04  1.6385013004E-04  1.2964520100E-01
  5.5950000000E+03  1.2202784178E-02  2.7201066692E+00  1.6646040437E-04  1.6421033222E-04  1.2980236729E-01
  5.6000000000E+03  1.2209216793E-02  2.7182964104E+00  1.6682983741E-04  1.6457099732E-04  1.2995952674E-01
  5.6050000000E+03  1.2215648182E-02  2.7164889703E+00  1.6719975955E-04  1.6493212550E-04  1.3011667924E-01
  5.6100000000E+03  1.2222077220E-02  2.7146843420E+00  1.6757017099E-04  1.6529371672E-04  1.3027382473E-01
  5.6150000000E+03  1.2228503910E-02  2.7128825186E+00  1.6794107195E-04  1.6565577112E-04  1.3043096311E-01
  5.6200000000E+03  1.2234928255E-02  2.7110834934E+00  1.6831246264E-04  1.6601828886E-04  1.3058809431E-01
  5.6250000000E+03  1.2241350257E-02  2.7092872594E+00  1.6868434327E-04  1.6638127010E-04  1.3074521824E-01
  5.6300000000E+03  1.2247769919E-02  2.7074938098E+00  1.6905671404E-04  1.6674471500E-04  1.3090233482E-01
  5.6350000000E+03  1.2254187245E-02  2.7057031380E+00  1.6942957518E-04  1.6710862370E-04  1.3105944398E-01
  5.6400000000E+03  1.2260602237E-02  2.7039152370E+00  1.6980292688E-04  1.6747299637E-04  1.3121654562E-01
  5.6450000000E+03  1.2267014898E-02  2.7021301002E+00  1.7017676936E-04  1.6783783316E-04  1.3137363966E-01
  5.6500000000E+03  1.2273462906E-02  2.7003477209E+00  1.7055110283E-04  1.6820314129E-04  1.3153072604E-01
  5.6550000000E+03  1.2280169950E-02  2.6985680923E+00  1.7092592749E-04  1.6856896315E-04  1.3168780466E-01
  5.6600000000E+03  1.2286874726E-02  2.6967912078E+00  1.7130124356E-04  1.6893524998E-04  1.3184487545E-01
  5.6650000000E+03  1.2293577237E-02  2.6950170608E+00  1.7167705125E-04  1.6930200191E-04  1.3200193833E-01
  5.6700000000E+03  1.2300277487E-02  2.6932456446E+00  1.7205335076E-04  1.6966921913E-04  1.3215899322E-01
  5.6750000000E+03  1.2306975478E-02  2.6914769526E+00  1.7243014231E-04  1.7003690176E-04  1.3231604005E-01
  5.6800000000E+03  1.2313671213E-02  2.6897109782E+00  1.7280742609E-04  1.7040504999E-04  1.3247307872E-01
  5.6850000000E+03  1.2320364694E-02  2.6879522135E+00  1.7318520233E-04  1.7077366396E-04  1.3263010917E-01
  5.6900000000E+03  1.2327055925E-02  2.6861978294E+00  1.7356347123E-04  1.7114274384E-04  1.3278713131E-01
  5.6950000000E+03  1.2333744907E-02  2.6844461297E+00  1.7394223300E-04  1.7151228976E-04  1.3294414508E-01
  5.7000000000E+03  1.2340431645E-02  2.6826971081E+00  1.7432148785E-04  1.7188230189E-04  1.3310115038E-01
  5.7050000000E+03  1.2347461519E-02  2.6809507581E+00  1.7470123599E-04  1.7225284759E-04  1.3325814716E-01
  5.7100000000E+03  1.2354657838E-02  2.6792070733E+00  1.7508147761E-04  1.7262389316E-04  1.3341513532E-01
  5.7150000000E+03  1.2361852047E-02  2.6774660473E+00  1.7546221295E-04  1.7299540606E-04  1.3357211480E-01
  5.7200000000E+03  1.2369044148E-02  2.6757276738E+00  1.7584344219E-04  1.7336738644E-04  1.3372908551E-01
  5.7250000000E+03  1.2376234144E-02  2.6739919463E+00  1.7622516555E-04  1.7373983446E-04  1.3388604739E-01
  5.7300000000E+03  1.2383422037E-02  2.6722588586E+00  1.7660738324E-04  1.7411275028E-04  1.3404300035E-01
  5.7350000000E+03  1.2390607830E-02  2.6705284042E+00  1.7699009547E-04  1.7448613405E-04  1.3419994433E-01
  5.7400000000E+03  1.2397791525E-02  2.6688005771E+00  1.7737330244E-04  1.7485998592E-04  1.3435687925E-01
  5.7450000000E+03  1.2404973125E-02  2.6670753707E+00  1.7775700436E-04  1.7523430606E-04  1.3451380503E-01
  5.7500000000E+03  1.2412152631E-02  2.6653527790E+00  1.7814120144E-04  1.7560909462E-04  1.3467072160E-01
  5.7550000000E+03  1.2419330273E-02  2.6636327957E+00  1.7852589389E-04  1.7598435179E-04  1.3482762889E-01
  5.7600000000E+03  1.2426507482E-02  2.6619154145E+00  1.7891108191E-04  1.7636007803E-04  1.3498452682E-01
  5.7650000000E+03  1.2433682605E-02  2.6602006294E+00  1.7929676571E-04  1.7673627315E-04  1.3514141533E-01
  5.7700000000E+03  1.2440855646E-02  2.6584884340E+00  1.7968294550E-04  1.7711293731E-04  1.3529829433E-01
  5.7750000000E+03  1.2448026606E-02  2.6567814819E+00  1.8006962149E-04  1.7749007067E-04  1.3545516376E-01
  5.7800000000E+03  1.2455195488E-02  2.6550805558E+00  1.8045679388E-04  1.7786767340E-04  1.3561202355E-01
  5.7850000000E+03  1.2462362295E-02  2.6533821881E+00  1.8084446288E-04  1.7824574563E-04  1.3576887362E-01
  5.7900000000E+03  1.2469527028E-02  2.6516863726E+00  1.8123262870E-04  1.7862428752E-04  1.3592571390E-01
  5.7950000000E+03  1.2476689691E-02  2.6499931033E+00  1.8162129154E-04  1.7900329922E-04  1.3608254432E-01
  5.8000000000E+03  1.2483850286E-02  2.6483023743E+00  1.8201045161E-04  1.7938278089E-04  1.3623936482E-01
  5.8050000000E+03  1.2491008814E-02  2.6466141794E+00  1.8240010912E-04  1.7976273267E-04  1.3639617531E-01
  5.8100000000E+03  1.2498165060E-02  2.6449285128E+00  1.8279026427E-04  1.8014315468E-04  1.3655297574E-01
  5.8150000000E+03  1.2505318998E-02  2.6432453684E+00  1.8318091727E-04  1.8052404706E-04  1.3670976603E-01
  5.8200000000E+03  1.2512470878E-02  2.6415647404E+00  1.8357206833E-04  1.8090541003E-04  1.3686654610E-01
  5.8250000000E+03  1.2519620701E-02  2.6398866229E+00  1.8396371765E-04  1.8128724372E-04  1.3702331591E-01
  5.8300000000E+03  1.2526768470E-02  2.6382110098E+00  1.8435586544E-04  1.8166954829E-04  1.3718007536E-01
  5.8350000000E+03  1.2533914186E-02  2.6365378954E+00  1.8474851191E-04  1.8205232390E-04  1.3733682440E-01
  5.8400000000E+03  1.2541057853E-02  2.6348672737E+00  1.8514165726E-04  1.8243557070E-04  1.3749356296E-01
  5.8450000000E+03  1.2548199473E-02  2.6331991390E+00  1.8553530169E-04  1.8281928885E-04  1.3765029097E-01
  5.8500000000E+03  1.2555339048E-02  2.6315334854E+00  1.8592944542E-04  1.8320347848E-04  1.3780700836E-01
  5.8550000000E+03  1.2562476581E-02  2.6298703071E+00  1.8632408865E-04  1.8358813976E-04  1.3796371507E-01
  5.8600000000E+03  1.2569612073E-02  2.6282095983E+00  1.8671923158E-04  1.8397327284E-04  1.3812041103E-01
  5.8650000000E+03  1.2576745454E-02  2.6265513533E+00  1.8711487442E-04  1.8435887786E-04  1.3827709616E-01
  5.8700000000E+03  1.2583876772E-02  2.6249006901E+00  1.8751101738E-04  1.8474495499E-04  1.3843377042E-01
  5.8750000000E+03  1.2591006057E-02  2.6232533872E+00  1.8790766065E-04  1.8513150438E-04  1.3859043372E-01
  5.8800000000E+03  1.2598133311E-02  2.6216085182E+00  1.8830480446E-04  1.8551852618E-04  1.3874708601E-01
  5.8850000000E+03  1.2605258536E-02  2.6199660773E+00  1.8870244899E-04  1.8590602053E-04  1.3890372722E-01
  5.8900000000E+03  1.2612381735E-02  2.6183260590E+00  1.8910059446E-04  1.8629398759E-04  1.3906035728E-01
  5.8950000000E+03  1.2619502909E-02  2.6166884575E+00  1.8949924107E-04  1.8668242751E-04  1.3921697613E-01
  5.9000000000E+03  1.2626622062E-02  2.6150532674E+00  1.8989838903E-04  1.8707134043E-04  1.3937358370E-01
  5.9050000000E+03  1.2633739195E-02  2.6134204830E+00  1.9029803854E-04  1.8746072652E-04  1.3953017994E-01
  5.9100000000E+03  1.2640854311E-02  2.6117900987E+00  1.9069818981E-04  1.8785058591E-04  1.3968676477E-01
  5.9150000000E+03  1.2647967412E-02  2.6101621090E+00  1.9109884303E-04  1.8824091877E-04  1.3984333813E-01
  5.9200000000E+03  1.2655075573E-02  2.6085365083E+00  1.9149999843E-04  1.8863172458E-04  1.3999989997E-01
  5.9250000000E+03  1.2662181310E-02  2.6069132912E+00  1.9190165619E-04  1.8902300406E-04  1.4015645021E-01
  5.9300000000E+03  1.2669285037E-02  2.6052924522E+00  1.9230381652E-04  1.8941475745E-04  1.4031298879E-01
  5.9350000000E+03  1.2676386757E-02  2.6036739856E+00  1.9270647963E-04  1.8980698489E-04  1.4046951566E-01
  5.9400000000E+03  1.2683486473E-02  2.6020578862E+00  1.9310964573E-04  1.9019968654E-04  1.4062603075E-01
  5.9450000000E+03  1.2690584186E-02  2.6004441483E+00  1.9351331501E-04  1.9059286254E-04  1.4078253399E-01
  5.9500000000E+03  1.2697679899E-02  2.5988327667E+00  1.9391748768E-04  1.9098651305E-04  1.4093902534E-01
  5.9550000000E+03  1.2704773615E-02  2.5972237358E+00  1.9432216395E-04  1.9138063821E-04  1.4109550472E-01
  5.9600000000E+03  1.2711865335E-02  2.5956170504E+00  1.9472734402E-04  1.9177523817E-04  1.4125197207E-01
  5.9650000000E+03  1.2718955061E-02  2.5940184431E+00  1.9513302809E-04  1.9217031311E-04  1.4140842733E-01
  5.9700000000E+03  1.2726042796E-02  2.5924223870E+00  1.9553921636E-04  1.9256586316E-04  1.4156487045E-01
  5.9750000000E+03  1.2733131154E-02  2.5908286479E+00  1.9594590904E-04  1.9296188906E-04  1.4172130137E-01
  5.9800000000E+03  1.2740217722E-02  2.5892372204E+00  1.9635310634E-04  1.9335839040E-04  1.4187772001E-01
  5.9850000000E+03  1.2747302306E-02  2.5876480994E+00  1.9676080845E-04  1.9375536730E-04  1.4203412634E-01
  5.9900000000E+03  1.2754384908E-02  2.5860612795E+00  1.9716901558E-04  1.9415281989E-04  1.4219052027E-01
  5.9950000000E+03  1.2761465532E-02  2.5844767554E+00  1.9757772794E-04  1.9455074833E-04  1.4234690177E-01
  6.0000000000E+03  1.2768544178E-02  2.5828945220E+00  1.9798694572E-04  1.9494915276E-04  1.4250327076E-01
  6.0050000000E+03  1.2775620850E-02  2.5813145740E+00  1.9840074995E-04  1.9535198970E-04  1.4265962719E-01
  6.0100000000E+03  1.2782695549E-02  2.5797369062E+00  1.9881507357E-04  1.9575531571E-04  1.4281597100E-01
  6.0150000000E+03  1.2789768277E-02  2.5781615135E+00  1.9922991679E-04  1.9615913093E-04  1.4297230213E-01
  6.0200000000E+03  1.2796839037E-02  2.5765883906E+00  1.9964527985E-04  1.9656343554E-04  1.4312862053E-01
  6.0250000000E+03  1.2803907831E-02  2.5750175324E+00  2.0006116294E-04  1.9696822969E-04  1.4328492614E-01
  6.0300000000E+03  1.2811471833E-02  2.5734489339E+00  2.0047756631E-04  1.9737363155E-04  1.4344121890E-01
  6.0350000000E+03  1.2819101839E-02  2.5718825898E+00  2.0089449015E-04  1.9777954016E-04  1.4359749876E-01
  6.0400000000E+03  1.2826730064E-02  2.5703184950E+00  2.0131193470E-04  1.9818593962E-04  1.4375376565E-01
  6.0450000000E+03  1.2834356510E-02  2.5687566446E+00  2.0172990016E-04  1.9859283012E-04  1.4391001953E-01
  6.0500000000E+03  1.2841981180E-02  2.5671970333E+00  2.0214838677E-04  1.9900021181E-04  1.4406626034E-01
  6.0550000000E+03  1.2849604076E-02  2.5656396562E+00  2.0256739473E-04  1.9940808485E-04  1.4422248801E-01
  6.0600000000E+03  1.2857225198E-02  2.5640890001E+00  2.0298692426E-04  1.9981644943E-04  1.4437870250E-01
  6.0650000000E+03  1.2864844550E-02  2.5625418882E+00  2.0340697559E-04  2.0022530570E-04  1.4453490376E-01
  6.0700000000E+03  1.2872462132E-02  2.5609969836E+00  2.0382754893E-04  2.0063465381E-04  1.4469109172E-01
  6.0750000000E+03  1.2880077947E-02  2.5594542813E+00  2.0424864450E-04  2.0104449392E-04  1.4484726633E-01
  6.0800000000E+03  1.2887691997E-02  2.5579137764E+00  2.0467026251E-04  2.0145482619E-04  1.4500342754E-01
  6.0850000000E+03  1.2895398421E-02  2.5563754638E+00  2.0509240318E-04  2.0186567386E-04  1.4515957529E-01
  6.0900000000E+03  1.2903137941E-02  2.5548393387E+00  2.0551506674E-04  2.0227702271E-04  1.4531570953E-01
  6.0950000000E+03  1.2910875749E-02  2.5533053963E+00  2.0593825340E-04  2.0268886441E-04  1.4547183021E-01
  6.1000000000E+03  1.2918611847E-02  2.5517736315E+00  2.0636196338E-04  2.0310119912E-04  1.4562793728E-01
  6.1050000000E+03  1.2926346236E-02  2.5502440395E+00  2.0678619689E-04  2.0351402699E-04  1.4578403067E-01
  6.1100000000E+03  1.2934078918E-02  2.5487166156E+00  2.0721095415E-04  2.0392734819E-04  1.4594011034E-01
  6.1150000000E+03  1.2941809895E-02  2.5471913547E+00  2.0763623538E-04  2.0434116288E-04  1.4609617624E-01
  6.1200000000E+03  1.2949539168E-02  2.5456682522E+00  2.0806204079E-04  2.0475547122E-04  1.4625222831E-01
  6.1250000000E+03  1.2957266740E-02  2.5441473031E+00  2.0848837061E-04  2.0517027338E-04  1.4640826651E-01
  6.1300000000E+03  1.2964992612E-02  2.5426285028E+00  2.0891522505E-04  2.0558556950E-04  1.4656429078E-01
  6.1350000000E+03  1.2972716785E-02  2.5411118463E+00  2.0934260432E-04  2.0600135977E-04  1.4672030106E-01
  6.1400000000E+03  1.2980438303E-02  2.5395973290E+00  2.0977050865E-04  2.0641764408E-04  1.4687629732E-01
  6.1450000000E+03  1.2988157070E-02  2.5380849460E+00  2.1019893825E-04  2.0683442258E-04  1.4703227949E-01
  6.1500000000E+03  1.2995874143E-02  2.5365746927E+00  2.1062789334E-04  2.0725169570E-04  1.4718824753E-01
  6.1550000000E+03  1.3003589525E-02  2.5350680974E+00  2.1105737413E-04  2.0766946360E-04  1.4734420138E-01
  6.1600000000E+03  1.3011303216E-02  2.5335677115E+00  2.1148738083E-04  2.0808772646E-04  1.4750014101E-01
  6.1650000000E+03  1.3019015219E-02  2.5320694298E+00  2.1191791368E-04  2.0850648442E-04  1.4765606635E-01
  6.1700000000E+03  1.3026725535E-02  2.5305732477E+00  2.1234897288E-04  2.0892573763E-04  1.4781197736E-01
  6.1750000000E+03  1.3034434166E-02  2.5290791606E+00  2.1278055864E-04  2.0934548625E-04  1.4796787399E-01
  6.1800000000E+03  1.3042141114E-02  2.5275871639E+00  2.1321267119E-04  2.0976573045E-04  1.4812375619E-01
  6.1850000000E+03  1.3049846381E-02  2.5260972529E+00  2.1364531074E-04  2.1018647039E-04  1.4827962391E-01
  6.1900000000E+03  1.3057549968E-02  2.5246094231E+00  2.1407847751E-04  2.1060770621E-04  1.4843547710E-01
  6.1950000000E+03  1.3065252097E-02  2.5231236699E+00  2.1451217171E-04  2.1102943814E-04  1.4859131572E-01
  6.2000000000E+03  1.3072954197E-02  2.5216399886E+00  2.1494639356E-04  2.1145166672E-04  1.4874713972E-01
  6.2050000000E+03  1.3080654624E-02  2.5201583747E+00  2.1538114327E-04  2.1187439167E-04  1.4890294905E-01
  6.2100000000E+03  1.3088353378E-02  2.5186788238E+00  2.1581642106E-04  2.1229761315E-04  1.4905874366E-01
  6.2150000000E+03  1.3096050462E-02  2.5172013312E+00  2.1625222715E-04  2.1272133132E-04  1.4921452350E-01
  6.2200000000E+03  1.3103745876E-02  2.5157258925E+00  2.1668856175E-04  2.1314554634E-04  1.4937028849E-01
  6.2250000000E+03  1.3111439624E-02  2.5142525031E+00  2.1712542507E-04  2.1357025837E-04  1.4952603837E-01
  6.2300000000E+03  1.3119131707E-02  2.5127811585E+00  2.1756281733E-04  2.1399546756E-04  1.4968177305E-01
  6.2350000000E+03  1.3126822126E-02  2.5113118544E+00  2.1800073875E-04  2.1442117408E-04  1.4983749249E-01
  6.2400000000E+03  1.3134510882E-02  2.5098445861E+00  2.1843918954E-04  2.1484737808E-04  1.4999319661E-01
  6.2450000000E+03  1.3142197979E-02  2.5083793494E+00  2.1887816992E-04  2.1527407972E-04  1.5014888537E-01
  6.2500000000E+03  1.3149883417E-02  2.5069161396E+00  2.1931768010E-04  2.1570127915E-04  1.5030455872E-01
  6.2550000000E+03  1.3157569516E-02  2.5054574499E+00  2.1975772029E-04  2.1612897718E-04  1.5046021659E-01
  6.2600000000E+03  1.3165255187E-02  2.5040037105E+00  2.2019829071E-04  2.1655717369E-04  1.5061585893E-01
  6.2650000000E+03  1.3172939206E-02  2.5025519743E+00  2.2063939158E-04  2.1698586847E-04  1.5077148568E-01
  6.2700000000E+03  1.3180621574E-02  2.5011022369E+00  2.2108102311E-04  2.1741506168E-04  1.5092709680E-01
  6.2750000000E+03  1.3188302293E-02  2.4996544940E+00  2.2152318551E-04  2.1784475348E-04  1.5108269222E-01
  6.2800000000E+03  1.3195981365E-02  2.4982087412E+00  2.2196587900E-04  2.1827494402E-04  1.5123827189E-01
  6.2850000000E+03  1.3203658792E-02  2.4967649743E+00  2.2240910379E-04  2.1870563347E-04  1.5139383576E-01
  6.2900000000E+03  1.3211334574E-02  2.4953231888E+00  2.2285286010E-04  2.1913682198E-04  1.5154938377E-01
  6.2950000000E+03  1.3219008715E-02  2.4938833806E+00  2.2329714814E-04  2.1956850971E-04  1.5170491588E-01
  6.3000000000E+03  1.3226681214E-02  2.4924455453E+00  2.2374196813E-04  2.2000069681E-04  1.5186043202E-01
  6.3050000000E+03  1.3234352075E-02  2.4910096787E+00  2.2418732027E-04  2.2043338344E-04  1.5201593214E-01
  6.3100000000E+03  1.3242020860E-02  2.4895757765E+00  2.2463320479E-04  2.2086656963E-04  1.5217141619E-01
  6.3150000000E+03  1.3249683347E-02  2.4881438345E+00  2.2507962189E-04  2.2130025436E-04  1.5232688412E-01
  6.3200000000E+03  1.3257344199E-02  2.4867138484E+00  2.2552657180E-04  2.2173443907E-04  1.5248233588E-01
  6.3250000000E+03  1.3265003416E-02  2.4852858141E+00  2.2597405472E-04  2.2216912394E-04  1.5263777141E-01
  6.3300000000E+03  1.3272661001E-02  2.4838597273E+00  2.2642207086E-04  2.2260430910E-04  1.5279319065E-01
  6.3350000000E+03  1.3280316954E-02  2.4824355839E+00  2.2687062045E-04  2.2303999471E-04  1.5294859357E-01
  6.3400000000E+03  1.3287971279E-02  2.4810133796E+00  2.2731970369E-04  2.2347618094E-04  1.5310398011E-01
  6.3450000000E+03  1.3295623976E-02  2.4795931103E+00  2.2776932080E-04  2.2391286792E-04  1.5325935021E-01
  6.3500000000E+03  1.3303275046E-02  2.4781747719E+00  2.2821947199E-04  2.2435005583E-04  1.5341470383E-01
