#[MATERIAL DEFINITION FOR MC-GPU: interaction mean free path and sampling data from PENELOPE 2018]
#[MATERIAL NAME]
# CESIUM IODIDE  (141)                                          
#[NOMINAL DENSITY (g/cm^3)]
#   4.51000000
#[NUMBER OF DATA VALUES]
#  23002
#[MEAN FREE PATHS (cm) (ie, average distance between interactions)]
#[Energy (eV)     | Rayleigh        | Compton         | Photoelectric   | TOTAL (+pair prod) (cm) | Rayleigh: max cumul prob F^2]
  5.0000000000E+03  7.4659244631E-02  6.5349713199E+00  4.3505170448E-04  4.3250264744E-04  1.3512273166E-01
  5.0050000000E+03  7.4569584925E-02  6.5291611810E+00  4.3618236780E-04  4.3361702931E-04  1.3530258719E-01
  5.0100000000E+03  7.4480122258E-02  6.5233620014E+00  4.3731483623E-04  4.3473312890E-04  1.3548243440E-01
  5.0150000000E+03  7.4291208216E-02  6.5175737497E+00  2.5952630743E-04  2.5861258147E-04  1.3566227314E-01
  5.0200000000E+03  7.4043670838E-02  6.5117963944E+00  3.0115906984E-04  2.9992530757E-04  1.3584210322E-01
  5.0250000000E+03  7.3797203450E-02  6.5060299041E+00  3.0994632441E-04  3.0863536062E-04  1.3602192447E-01
  5.0300000000E+03  7.3551800369E-02  6.5002742477E+00  3.1123607645E-04  3.0990984743E-04  1.3620173671E-01
  5.0350000000E+03  7.3307455947E-02  6.4945293939E+00  3.1076261306E-04  3.0943605518E-04  1.3638153975E-01
  5.0400000000E+03  7.3064164573E-02  6.4887953120E+00  3.1032662041E-04  3.0899942421E-04  1.3656133344E-01
  5.0450000000E+03  7.2821920671E-02  6.4830719709E+00  3.1040476248E-04  3.0907253699E-04  1.3674111759E-01
  5.0500000000E+03  7.2580718700E-02  6.4773593400E+00  3.1107736383E-04  3.0973497993E-04  1.3692089203E-01
  5.0550000000E+03  7.2340553154E-02  6.4716573887E+00  3.1183267565E-04  3.1047935670E-04  1.3710065659E-01
  5.0600000000E+03  7.2091852164E-02  6.4659660864E+00  3.1264827050E-04  3.1128324447E-04  1.3728041109E-01
  5.0650000000E+03  7.1826557502E-02  6.4602854027E+00  3.1348454557E-04  3.1210721936E-04  1.3746015536E-01
  5.0700000000E+03  7.1562499431E-02  6.4546153075E+00  3.1432222516E-04  3.1293250039E-04  1.3763988924E-01
  5.0750000000E+03  7.1299670974E-02  6.4489557706E+00  3.1516131023E-04  3.1375908784E-04  1.3781961254E-01
  5.0800000000E+03  7.1038065203E-02  6.4433067618E+00  3.1588294771E-04  3.1446918965E-04  1.3799932510E-01
  5.0850000000E+03  7.0777675234E-02  6.4377080680E+00  3.1648827167E-04  3.1506394792E-04  1.3817902675E-01
  5.0900000000E+03  7.0518494232E-02  6.4321235938E+00  3.1709400081E-04  3.1565904442E-04  1.3835871731E-01
  5.0950000000E+03  7.0260515402E-02  6.4265494398E+00  3.1770013465E-04  3.1625447832E-04  1.3853839663E-01
  5.1000000000E+03  7.0003731997E-02  6.4209855769E+00  3.1834612393E-04  3.1688933980E-04  1.3871806452E-01
  5.1050000000E+03  6.9748137314E-02  6.4154319760E+00  3.1912067328E-04  3.1765151228E-04  1.3889772083E-01
  5.1100000000E+03  6.9547400118E-02  6.4098886081E+00  3.1989634070E-04  3.1841583612E-04  1.3907736539E-01
  5.1150000000E+03  6.9347976687E-02  6.4043554445E+00  3.2067312670E-04  3.1918121381E-04  1.3925699802E-01
  5.1200000000E+03  6.9149319099E-02  6.3988324563E+00  3.2145103178E-04  3.1994763412E-04  1.3943661857E-01
  5.1250000000E+03  6.8951423669E-02  6.3933196150E+00  3.2223005644E-04  3.2071509713E-04  1.3961622686E-01
  5.1300000000E+03  6.8754286735E-02  6.3878168920E+00  3.2301020119E-04  3.2148360291E-04  1.3979582274E-01
  5.1350000000E+03  6.8557904654E-02  6.3823242590E+00  3.2379146653E-04  3.2225315151E-04  1.3997540603E-01
  5.1400000000E+03  6.8362273805E-02  6.3768416876E+00  3.2457385296E-04  3.2302374300E-04  1.4015497658E-01
  5.1450000000E+03  6.8167390588E-02  6.3713691497E+00  3.2535736099E-04  3.2379537745E-04  1.4033453421E-01
  5.1500000000E+03  6.7973251423E-02  6.3659066171E+00  3.2614199112E-04  3.2456805490E-04  1.4051407877E-01
  5.1550000000E+03  6.7798652381E-02  6.3604540619E+00  3.2692774385E-04  3.2534220843E-04  1.4069361010E-01
  5.1600000000E+03  6.7640512078E-02  6.3550114561E+00  3.2771461968E-04  3.2611777948E-04  1.4087312802E-01
  5.1650000000E+03  6.7482893265E-02  6.3496016859E+00  3.2850261911E-04  3.2689440485E-04  1.4105263239E-01
  5.1700000000E+03  6.7325793719E-02  6.3442201797E+00  3.2929174265E-04  3.2767208467E-04  1.4123212303E-01
  5.1750000000E+03  6.7169211230E-02  6.3388484298E+00  3.3008199080E-04  3.2845081904E-04  1.4141159980E-01
  5.1800000000E+03  6.7013143598E-02  6.3334864094E+00  3.3087336405E-04  3.2923060810E-04  1.4159106252E-01
  5.1850000000E+03  6.6857588638E-02  6.3281340913E+00  3.3166586290E-04  3.3001145199E-04  1.4177051104E-01
  5.1900000000E+03  6.6702544171E-02  6.3227914486E+00  3.3250246520E-04  3.3083589847E-04  1.4194994521E-01
  5.1950000000E+03  6.6548008035E-02  6.3174584547E+00  3.3334106929E-04  3.3166226239E-04  1.4212936485E-01
  5.2000000000E+03  6.6394359934E-02  6.3121350827E+00  3.1020754987E-04  3.0874983632E-04  1.4230876982E-01
  5.2050000000E+03  6.6288449365E-02  6.3068213062E+00  3.0998047367E-04  3.0852258517E-04  1.4248815996E-01
  5.2100000000E+03  6.6182809190E-02  6.3015170986E+00  3.1007486157E-04  3.0861378107E-04  1.4266753510E-01
  5.2150000000E+03  6.6077438458E-02  6.2962224336E+00  3.1028773221E-04  3.0882233896E-04  1.4284689510E-01
  5.2200000000E+03  6.5972336226E-02  6.2909372847E+00  3.1079612300E-04  3.0932361559E-04  1.4302623980E-01
  5.2250000000E+03  6.5867501554E-02  6.2856616260E+00  3.1141567597E-04  3.0993497567E-04  1.4320556904E-01
  5.2300000000E+03  6.5762933505E-02  6.2803954311E+00  3.1218444277E-04  3.1069409714E-04  1.4338488267E-01
  5.2350000000E+03  6.5658631146E-02  6.2751386743E+00  3.1297553574E-04  3.1147528895E-04  1.4356418054E-01
  5.2400000000E+03  6.5554593551E-02  6.2698913295E+00  3.1378427158E-04  3.1227391004E-04  1.4374346248E-01
  5.2450000000E+03  6.5450819795E-02  6.2646533709E+00  3.1459432187E-04  3.1307378726E-04  1.4392272835E-01
  5.2500000000E+03  6.5362447578E-02  6.2594612687E+00  3.1540568749E-04  3.1387527048E-04  1.4410197800E-01
  5.2550000000E+03  6.5298322521E-02  6.2542810275E+00  3.1621836931E-04  3.1467857389E-04  1.4428121127E-01
  5.2600000000E+03  6.5234321270E-02  6.2491099939E+00  3.1703236822E-04  3.1548314602E-04  1.4446042801E-01
  5.2650000000E+03  6.5170443469E-02  6.2439481426E+00  3.1784768509E-04  3.1628898754E-04  1.4463962806E-01
  5.2700000000E+03  6.5106688761E-02  6.2387954487E+00  3.1866045857E-04  3.1709227483E-04  1.4481881129E-01
  5.2750000000E+03  6.5043056795E-02  6.2336518873E+00  3.1942610850E-04  3.1784886712E-04  1.4499797753E-01
  5.2800000000E+03  6.4979547216E-02  6.2285174337E+00  3.2019286789E-04  3.1860652530E-04  1.4517712665E-01
  5.2850000000E+03  6.4916159676E-02  6.2233920629E+00  3.2096073726E-04  3.1936524976E-04  1.4535625848E-01
  5.2900000000E+03  6.4852893823E-02  6.2182757505E+00  3.2172971719E-04  3.2012504089E-04  1.4553537288E-01
  5.2950000000E+03  6.4789749309E-02  6.2131684718E+00  3.2249980821E-04  3.2088589905E-04  1.4571446971E-01
  5.3000000000E+03  6.4719068551E-02  6.2080702025E+00  3.2327101087E-04  3.2164763553E-04  1.4589354881E-01
  5.3050000000E+03  6.4644833897E-02  6.2029809181E+00  3.2404332572E-04  3.2241034583E-04  1.4607261004E-01
  5.3100000000E+03  6.4570754205E-02  6.1979005943E+00  3.2481675332E-04  3.2317412130E-04  1.4625165325E-01
  5.3150000000E+03  6.4496829007E-02  6.1928292070E+00  3.2559129420E-04  3.2393896229E-04  1.4643067830E-01
  5.3200000000E+03  6.4423057836E-02  6.1877667321E+00  3.2636694891E-04  3.2470486917E-04  1.4660968503E-01
  5.3250000000E+03  6.4349440227E-02  6.1827131455E+00  3.2714371801E-04  3.2547184228E-04  1.4678867331E-01
  5.3300000000E+03  6.4275975715E-02  6.1776700659E+00  3.2792160204E-04  3.2623988200E-04  1.4696764299E-01
  5.3350000000E+03  6.4202663840E-02  6.1726711691E+00  3.2870060155E-04  3.2700898877E-04  1.4714659392E-01
  5.3400000000E+03  6.4129504142E-02  6.1676809946E+00  3.2948071708E-04  3.2777916284E-04  1.4732552597E-01
  5.3450000000E+03  6.4056496163E-02  6.1626995189E+00  3.3026194918E-04  3.2855040458E-04  1.4750443898E-01
  5.3500000000E+03  6.3931561672E-02  6.1577267186E+00  3.3105182810E-04  3.2932878511E-04  1.4768333282E-01
  5.3550000000E+03  6.3799364789E-02  6.1527625708E+00  3.3184338749E-04  3.3010857028E-04  1.4786220734E-01
  5.3600000000E+03  6.3667564255E-02  6.1478070521E+00  3.3263609691E-04  3.3088943629E-04  1.4804106240E-01
  5.3650000000E+03  6.3536158512E-02  6.1428601397E+00  2.7779707528E-04  2.7657530658E-04  1.4821989786E-01
  5.3700000000E+03  6.3405146013E-02  6.1379218105E+00  2.8972666214E-04  2.8839524138E-04  1.4839871358E-01
  5.3750000000E+03  6.3274525215E-02  6.1329920416E+00  2.9201306668E-04  2.9065783633E-04  1.4857750942E-01
  5.3800000000E+03  6.3144294585E-02  6.1280708104E+00  2.9239370866E-04  2.9103217922E-04  1.4875628524E-01
  5.3850000000E+03  6.3014452597E-02  6.1231580941E+00  2.9252670861E-04  2.9116116567E-04  1.4893504090E-01
  5.3900000000E+03  6.2884997731E-02  6.1182538701E+00  2.9281416218E-04  2.9144315448E-04  1.4911377625E-01
  5.3950000000E+03  6.2755928475E-02  6.1133581158E+00  2.9327129200E-04  2.9189321254E-04  1.4929249117E-01
  5.4000000000E+03  6.2606573818E-02  6.1084708088E+00  2.9390659336E-04  2.9251928697E-04  1.4947118552E-01
  5.4050000000E+03  6.2457248788E-02  6.1035919267E+00  2.9459716719E-04  2.9320005508E-04  1.4964985915E-01
  5.4100000000E+03  6.2308417497E-02  6.0987214472E+00  2.9528872254E-04  2.9388174467E-04  1.4982851193E-01
  5.4150000000E+03  6.2160077858E-02  6.0938593482E+00  2.9598125987E-04  2.9456435591E-04  1.5000714372E-01
  5.4200000000E+03  6.2012227796E-02  6.0890365099E+00  2.9667477969E-04  2.9524788906E-04  1.5018575439E-01
  5.4250000000E+03  6.1864865244E-02  6.0842259836E+00  2.9736928246E-04  2.9593234421E-04  1.5036434380E-01
  5.4300000000E+03  6.1717988149E-02  6.0794236841E+00  2.9806476869E-04  2.9661772153E-04  1.5054291181E-01
  5.4350000000E+03  6.1571594467E-02  6.0746295898E+00  2.9873224287E-04  2.9727530737E-04  1.5072145830E-01
  5.4400000000E+03  6.1425682163E-02  6.0698436792E+00  2.9939693074E-04  2.9793008446E-04  1.5089998312E-01
  5.4450000000E+03  6.1280249215E-02  6.0650659308E+00  3.0006248306E-04  2.9858566790E-04  1.5107848615E-01
  5.4500000000E+03  6.1164200039E-02  6.0602963232E+00  3.0072890014E-04  2.9924274997E-04  1.5125696725E-01
  5.4550000000E+03  6.1048650864E-02  6.0555348351E+00  3.0139618232E-04  2.9990065109E-04  1.5143542628E-01
  5.4600000000E+03  6.0933425543E-02  6.0507814452E+00  3.0206432991E-04  3.0055936721E-04  1.5161386312E-01
  5.4650000000E+03  6.0818522873E-02  6.0460361323E+00  3.0273334324E-04  3.0121889844E-04  1.5179227763E-01
  5.4700000000E+03  6.0703941657E-02  6.0412988754E+00  3.0340322264E-04  3.0187924486E-04  1.5197066968E-01
  5.4750000000E+03  6.0589680704E-02  6.0365696535E+00  3.0407396843E-04  3.0254040659E-04  1.5214903915E-01
  5.4800000000E+03  6.0475738825E-02  6.0318484455E+00  3.0474558092E-04  3.0320238372E-04  1.5232738589E-01
  5.4850000000E+03  6.0362114841E-02  6.0271352307E+00  3.0541806046E-04  3.0386517634E-04  1.5250570978E-01
  5.4900000000E+03  6.0248807577E-02  6.0224299882E+00  3.0609140735E-04  3.0452878456E-04  1.5268401069E-01
  5.4950000000E+03  6.0135815861E-02  6.0177326973E+00  3.0676562193E-04  3.0519320847E-04  1.5286228850E-01
  5.5000000000E+03  6.0063452807E-02  6.0130433373E+00  3.0744070451E-04  3.0585949425E-04  1.5304054306E-01
  5.5050000000E+03  5.9994838876E-02  6.0083766994E+00  3.0815564931E-04  3.0656529373E-04  1.5321877426E-01
  5.5100000000E+03  5.9926365510E-02  6.0037362001E+00  3.0887160530E-04  3.0727206001E-04  1.5339698196E-01
  5.5150000000E+03  5.9858032296E-02  5.9991034890E+00  3.0958857297E-04  3.0797979338E-04  1.5357516605E-01
  5.5200000000E+03  5.9789838820E-02  5.9944785460E+00  3.1030655285E-04  3.0868849417E-04  1.5375332638E-01
  5.5250000000E+03  5.9721784669E-02  5.9898613511E+00  3.1102554543E-04  3.0939816274E-04  1.5393146284E-01
  5.5300000000E+03  5.9653869434E-02  5.9852518843E+00  3.1174555123E-04  3.1010879939E-04  1.5410957530E-01
  5.5350000000E+03  5.9586092705E-02  5.9806501257E+00  3.1246657076E-04  3.1082040448E-04  1.5428766363E-01
  5.5400000000E+03  5.9518454075E-02  5.9760560554E+00  3.1318860453E-04  3.1153297834E-04  1.5446572771E-01
  5.5450000000E+03  5.9450953139E-02  5.9714696537E+00  3.1391165305E-04  3.1224652128E-04  1.5464376742E-01
  5.5500000000E+03  5.9408209768E-02  5.9668909010E+00  3.1463571682E-04  3.1296171719E-04  1.5482178262E-01
  5.5550000000E+03  5.9373822714E-02  5.9623197775E+00  3.1536079636E-04  3.1367812111E-04  1.5499977320E-01
  5.5600000000E+03  5.9339486475E-02  5.9577562637E+00  3.1608689218E-04  3.1439550427E-04  1.5517773903E-01
  5.5650000000E+03  5.9305200930E-02  5.9532003400E+00  3.1681400478E-04  3.1511386708E-04  1.5535567999E-01
  5.5700000000E+03  5.9270965959E-02  5.9486519872E+00  3.1754213466E-04  3.1583320991E-04  1.5553359596E-01
  5.5750000000E+03  5.9236781441E-02  5.9441111858E+00  3.1827128235E-04  3.1655353314E-04  1.5571148681E-01
  5.5800000000E+03  5.9202647259E-02  5.9395779165E+00  3.1900144834E-04  3.1727483716E-04  1.5588935242E-01
  5.5850000000E+03  5.9168563291E-02  5.9350521602E+00  3.1973263315E-04  3.1799712235E-04  1.5606719268E-01
  5.5900000000E+03  5.9134529420E-02  5.9305338975E+00  3.2046483728E-04  3.1872038909E-04  1.5624500746E-01
  5.5950000000E+03  5.9100545528E-02  5.9260461909E+00  3.2119806123E-04  3.1944463783E-04  1.5642279663E-01
  5.6000000000E+03  5.9068324146E-02  5.9215744186E+00  3.2193230553E-04  3.2016991924E-04  1.5660056009E-01
  5.6050000000E+03  5.9037973194E-02  5.9171100071E+00  3.2266757066E-04  3.2089623770E-04  1.5677829771E-01
  5.6100000000E+03  5.9007664879E-02  5.9126529377E+00  3.2340385715E-04  3.2162354021E-04  1.5695600937E-01
  5.6150000000E+03  5.8977399103E-02  5.9082031917E+00  3.2414116549E-04  3.2235182714E-04  1.5713369496E-01
  5.6200000000E+03  5.8947175769E-02  5.9037607507E+00  3.2487949619E-04  3.2308109890E-04  1.5731135435E-01
  5.6250000000E+03  5.8916994779E-02  5.8993255961E+00  3.2561884976E-04  3.2381135585E-04  1.5748898743E-01
  5.6300000000E+03  5.8886856038E-02  5.8948977096E+00  3.2635922670E-04  3.2454259838E-04  1.5766659407E-01
  5.6350000000E+03  5.8856759447E-02  5.8904770727E+00  3.2710062752E-04  3.2527482688E-04  1.5784417417E-01
  5.6400000000E+03  5.8826704912E-02  5.8860636673E+00  3.2784305272E-04  3.2600804173E-04  1.5802172761E-01
  5.6450000000E+03  5.8796692335E-02  5.8816574751E+00  3.2858650282E-04  3.2674224331E-04  1.5819925427E-01
  5.6500000000E+03  5.8763223797E-02  5.8772584778E+00  3.2933097831E-04  3.2747732337E-04  1.5837675403E-01
  5.6550000000E+03  5.8705571446E-02  5.8728666575E+00  3.3007647970E-04  3.2821263280E-04  1.5855422678E-01
  5.6600000000E+03  5.8648026535E-02  5.8684819961E+00  3.3082300749E-04  3.2894892179E-04  1.5873167241E-01
  5.6650000000E+03  5.8590588768E-02  5.8641044756E+00  3.3157056219E-04  3.2968619066E-04  1.5890909080E-01
  5.6700000000E+03  5.8533257853E-02  5.8597340781E+00  3.3231914430E-04  3.3042443976E-04  1.5908648183E-01
  5.6750000000E+03  5.8476033496E-02  5.8553707857E+00  3.3306875433E-04  3.3116366940E-04  1.5926384540E-01
  5.6800000000E+03  5.8418915405E-02  5.8510145807E+00  3.3381939278E-04  3.3190387992E-04  1.5944118139E-01
  5.6850000000E+03  5.8361903290E-02  5.8466874579E+00  3.3457106016E-04  3.3264507173E-04  1.5961848968E-01
  5.6900000000E+03  5.8304996862E-02  5.8423755834E+00  3.3532375696E-04  3.3338724510E-04  1.5979577017E-01
  5.6950000000E+03  5.8248195832E-02  5.8380706720E+00  3.3607748369E-04  3.3413040034E-04  1.5997302274E-01
  5.7000000000E+03  5.8191499912E-02  5.8337727064E+00  3.3683224085E-04  3.3487453777E-04  1.6015024728E-01
  5.7050000000E+03  5.8122517302E-02  5.8294816693E+00  3.3758802895E-04  3.3561924463E-04  1.6032744368E-01
  5.7100000000E+03  5.8047639319E-02  5.8251975434E+00  3.3834484849E-04  3.3636472743E-04  1.6050461183E-01
  5.7150000000E+03  5.7972923212E-02  5.8209203116E+00  3.3910269997E-04  3.3711118704E-04  1.6068175162E-01
  5.7200000000E+03  5.7898368490E-02  5.8166499567E+00  3.1703457740E-04  3.1529095129E-04  1.6085886294E-01
  5.7250000000E+03  5.7823974663E-02  5.8123864618E+00  3.1603997162E-04  3.1430503109E-04  1.6103594568E-01
  5.7300000000E+03  5.7749741245E-02  5.8081298098E+00  3.1638413594E-04  3.1464321179E-04  1.6121299973E-01
  5.7350000000E+03  5.7675667749E-02  5.8038799838E+00  3.1691701763E-04  3.1516801872E-04  1.6139002498E-01
  5.7400000000E+03  5.7601753692E-02  5.7996369669E+00  3.1776241612E-04  3.1600186522E-04  1.6156702133E-01
  5.7450000000E+03  5.7527998594E-02  5.7954007423E+00  3.1860927409E-04  3.1683710585E-04  1.6174398868E-01
  5.7500000000E+03  5.7454401973E-02  5.7911712931E+00  3.1945759263E-04  3.1767374136E-04  1.6192092709E-01
  5.7550000000E+03  5.7381025914E-02  5.7869486028E+00  3.2018928067E-04  3.1839500239E-04  1.6209783651E-01
  5.7600000000E+03  5.7308265168E-02  5.7827326546E+00  3.2086478651E-04  3.1906068544E-04  1.6227471680E-01
  5.7650000000E+03  5.7235659697E-02  5.7785234319E+00  3.2154112682E-04  3.1972715791E-04  1.6245156784E-01
  5.7700000000E+03  5.7163209037E-02  5.7743209182E+00  3.2221830190E-04  3.2039441994E-04  1.6262838952E-01
  5.7750000000E+03  5.7090912723E-02  5.7701376959E+00  3.2289631205E-04  3.2106247171E-04  1.6280518171E-01
  5.7800000000E+03  5.7018770293E-02  5.7659774825E+00  3.2357515757E-04  3.2173131335E-04  1.6298194429E-01
  5.7850000000E+03  5.6946781287E-02  5.7618238620E+00  3.2425483875E-04  3.2240094496E-04  1.6315867714E-01
  5.7900000000E+03  5.6874945246E-02  5.7576768181E+00  3.2495584190E-04  3.2309161828E-04  1.6333538014E-01
  5.7950000000E+03  5.6803261714E-02  5.7535363349E+00  3.2566629919E-04  3.2379159919E-04  1.6351205318E-01
  5.8000000000E+03  5.6731730236E-02  5.7494023963E+00  3.2637769501E-04  3.2449246900E-04  1.6368869612E-01
  5.8050000000E+03  5.6660350359E-02  5.7452749862E+00  3.2709002979E-04  3.2519422794E-04  1.6386530886E-01
  5.8100000000E+03  5.6600019748E-02  5.7411540889E+00  3.2780330396E-04  3.2589723762E-04  1.6404189128E-01
  5.8150000000E+03  5.6551980582E-02  5.7370396884E+00  3.2851751795E-04  3.2660154674E-04  1.6421844326E-01
  5.8200000000E+03  5.6504023425E-02  5.7329317689E+00  3.2923267219E-04  3.2730675332E-04  1.6439496467E-01
  5.8250000000E+03  5.6456148066E-02  5.7288303147E+00  3.2994876710E-04  3.2801285764E-04  1.6457145541E-01
  5.8300000000E+03  5.6408354297E-02  5.7247353100E+00  3.3066580312E-04  3.2871985998E-04  1.6474791536E-01
  5.8350000000E+03  5.6360641908E-02  5.7206467392E+00  3.3138378067E-04  3.2942776062E-04  1.6492434440E-01
  5.8400000000E+03  5.6313010692E-02  5.7165645867E+00  3.3210270019E-04  3.3013655984E-04  1.6510074241E-01
  5.8450000000E+03  5.6265460440E-02  5.7124888368E+00  3.3282256209E-04  3.3084625792E-04  1.6527710928E-01
  5.8500000000E+03  5.6217990947E-02  5.7084194742E+00  3.3354336680E-04  3.3155685514E-04  1.6545344490E-01
  5.8550000000E+03  5.6170602006E-02  5.7043564834E+00  3.3426511476E-04  3.3226835177E-04  1.6562974915E-01
  5.8600000000E+03  5.6123293412E-02  5.7002998488E+00  3.3498675634E-04  3.3297971060E-04  1.6580602191E-01
  5.8650000000E+03  5.6087447697E-02  5.6962495553E+00  3.3570875181E-04  3.3369178933E-04  1.6598226308E-01
  5.8700000000E+03  5.6055990660E-02  5.6922290874E+00  3.3643168611E-04  3.3440492087E-04  1.6615847253E-01
  5.8750000000E+03  5.6024578027E-02  5.6882190901E+00  3.3715555965E-04  3.3511895252E-04  1.6633465016E-01
  5.8800000000E+03  5.5993209698E-02  5.6842153255E+00  3.3788037286E-04  3.3583388458E-04  1.6651079585E-01
  5.8850000000E+03  5.5961885571E-02  5.6802177784E+00  3.3860612616E-04  3.3654971733E-04  1.6668690949E-01
  5.8900000000E+03  5.5930605548E-02  5.6762264341E+00  3.3933281997E-04  3.3726645107E-04  1.6686299097E-01
  5.8950000000E+03  5.5899369530E-02  5.6722412777E+00  3.4006045469E-04  3.3798408610E-04  1.6703904018E-01
  5.9000000000E+03  5.5868177416E-02  5.6682622942E+00  3.4078903076E-04  3.3870262272E-04  1.6721505701E-01
  5.9050000000E+03  5.5837029108E-02  5.6642894690E+00  3.4151854859E-04  3.3942206121E-04  1.6739104133E-01
  5.9100000000E+03  5.5805924507E-02  5.6603227873E+00  3.4224900860E-04  3.4014240187E-04  1.6756699306E-01
  5.9150000000E+03  5.5774863516E-02  5.6563622345E+00  3.4298041121E-04  3.4086364501E-04  1.6774291207E-01
  5.9200000000E+03  5.5751930098E-02  5.6524077958E+00  3.4371275683E-04  3.4158609441E-04  1.6791879825E-01
  5.9250000000E+03  5.5730168921E-02  5.6484594567E+00  3.4444604589E-04  3.4230949262E-04  1.6809465150E-01
  5.9300000000E+03  5.5708434583E-02  5.6445172026E+00  3.4518027879E-04  3.4303379716E-04  1.6827047170E-01
  5.9350000000E+03  5.5686727028E-02  5.6405810191E+00  3.4591545597E-04  3.4375900834E-04  1.6844625876E-01
  5.9400000000E+03  5.5665046201E-02  5.6366508917E+00  3.4665157782E-04  3.4448512647E-04  1.6862201255E-01
  5.9450000000E+03  5.5643392047E-02  5.6327268060E+00  3.4738864479E-04  3.4521215185E-04  1.6879773298E-01
  5.9500000000E+03  5.5621764510E-02  5.6288087476E+00  3.4812665727E-04  3.4594008480E-04  1.6897341993E-01
  5.9550000000E+03  5.5600163536E-02  5.6248967023E+00  3.4886561568E-04  3.4666892561E-04  1.6914907330E-01
  5.9600000000E+03  5.5578589069E-02  5.6209906557E+00  3.4960552045E-04  3.4739867460E-04  1.6932469298E-01
  5.9650000000E+03  5.5557041055E-02  5.6171161077E+00  3.5034637199E-04  3.4812933216E-04  1.6950027886E-01
  5.9700000000E+03  5.5535519439E-02  5.6132484892E+00  3.5108817071E-04  3.4886089851E-04  1.6967583085E-01
  5.9750000000E+03  5.5521198847E-02  5.6093867683E+00  3.5183091703E-04  3.4959365844E-04  1.6985134883E-01
  5.9800000000E+03  5.5507433624E-02  5.6055309311E+00  3.5257461137E-04  3.5032735160E-04  1.7002683269E-01
  5.9850000000E+03  5.5493683315E-02  5.6016809635E+00  3.5331925415E-04  3.5106195697E-04  1.7020228234E-01
  5.9900000000E+03  5.5479947889E-02  5.5978368519E+00  3.5406484577E-04  3.5179747487E-04  1.7037769767E-01
  5.9950000000E+03  5.5466227320E-02  5.5939985824E+00  3.5481138665E-04  3.5253390561E-04  1.7055307858E-01
  6.0000000000E+03  5.5452521578E-02  5.5901661413E+00  3.5555887722E-04  3.5327124952E-04  1.7072842496E-01
  6.0050000000E+03  5.5438830635E-02  5.5863395149E+00  3.5631949674E-04  3.5402152919E-04  1.7090373670E-01
  6.0100000000E+03  5.5425154463E-02  5.5825186895E+00  3.5708110826E-04  3.5477276287E-04  1.7107901371E-01
  6.0150000000E+03  5.5411493034E-02  5.5787036516E+00  3.5784371225E-04  3.5552495092E-04  1.7125425589E-01
  6.0200000000E+03  5.5397846320E-02  5.5748943875E+00  3.5860730918E-04  3.5627809370E-04  1.7142946312E-01
  6.0250000000E+03  5.5384214291E-02  5.5710908838E+00  3.5937189951E-04  3.5703219157E-04  1.7160463531E-01
  6.0300000000E+03  5.5374024007E-02  5.5672931269E+00  3.6013748371E-04  3.5778738797E-04  1.7177977236E-01
  6.0350000000E+03  5.5364311108E-02  5.5635011034E+00  3.6090406225E-04  3.5854356092E-04  1.7195487417E-01
  6.0400000000E+03  5.5354607954E-02  5.5597148000E+00  3.6167163558E-04  3.5930069135E-04  1.7212994063E-01
  6.0450000000E+03  5.5344914528E-02  5.5559342033E+00  3.6244020419E-04  3.6005877963E-04  1.7230497164E-01
  6.0500000000E+03  5.5335230812E-02  5.5521592999E+00  3.6320976852E-04  3.6081782611E-04  1.7247996711E-01
  6.0550000000E+03  5.5325556787E-02  5.5483900766E+00  3.6398032906E-04  3.6157783115E-04  1.7265492694E-01
  6.0600000000E+03  5.5315892437E-02  5.5446462821E+00  3.6475188625E-04  3.6233879522E-04  1.7282985102E-01
  6.0650000000E+03  5.5306237744E-02  5.5409139458E+00  3.6552444058E-04  3.6310071860E-04  1.7300473926E-01
  6.0700000000E+03  5.5296592690E-02  5.5371871945E+00  3.6629799250E-04  3.6386360164E-04  1.7317959155E-01
  6.0750000000E+03  5.5286957257E-02  5.5334660152E+00  3.6707254247E-04  3.6462744469E-04  1.7335440780E-01
  6.0800000000E+03  5.5277331429E-02  5.5297503950E+00  3.6784809097E-04  3.6539224813E-04  1.7352918792E-01
  6.0850000000E+03  5.5271385810E-02  5.5260403211E+00  3.6862463846E-04  3.6615817340E-04  1.7370393180E-01
  6.0900000000E+03  5.5266802701E-02  5.5223357806E+00  3.6940218540E-04  3.6692512086E-04  1.7387863935E-01
  6.0950000000E+03  5.5262223732E-02  5.5186367607E+00  3.7018073225E-04  3.6769303150E-04  1.7405331046E-01
  6.1000000000E+03  5.5257648897E-02  5.5149432488E+00  3.7096027948E-04  3.6846190570E-04  1.7422794505E-01
  6.1050000000E+03  5.5253078188E-02  5.5112552320E+00  3.7174082755E-04  3.6923174383E-04  1.7440254302E-01
  6.1100000000E+03  5.5248511599E-02  5.5075726977E+00  3.7252237694E-04  3.7000254626E-04  1.7457710426E-01
  6.1150000000E+03  5.5243949123E-02  5.5038956333E+00  3.7330492809E-04  3.7077431334E-04  1.7475162870E-01
  6.1200000000E+03  5.5239390752E-02  5.5002240262E+00  3.7408848147E-04  3.7154704545E-04  1.7492611622E-01
  6.1250000000E+03  5.5234836479E-02  5.4965578639E+00  3.7487303755E-04  3.7232074295E-04  1.7510056674E-01
  6.1300000000E+03  5.5230286297E-02  5.4928971338E+00  3.7565859679E-04  3.7309540620E-04  1.7527498016E-01
  6.1350000000E+03  5.5225740200E-02  5.4892418235E+00  3.7644515966E-04  3.7387103558E-04  1.7544935638E-01
  6.1400000000E+03  5.5221615807E-02  5.4855919206E+00  3.7723272660E-04  3.7464765067E-04  1.7562369532E-01
  6.1450000000E+03  5.5217954601E-02  5.4819474126E+00  3.7802129810E-04  3.7542525400E-04  1.7579799688E-01
  6.1500000000E+03  5.5214296616E-02  5.4783082872E+00  3.7881087460E-04  3.7620382485E-04  1.7597226097E-01
  6.1550000000E+03  5.5210641846E-02  5.4746813162E+00  3.7960145658E-04  3.7698336363E-04  1.7614648749E-01
  6.1600000000E+03  5.5206990285E-02  5.4710777953E+00  3.8039304449E-04  3.7776387074E-04  1.7632067635E-01
  6.1650000000E+03  5.5203341927E-02  5.4674795671E+00  3.8118563879E-04  3.7854534648E-04  1.7649482746E-01
  6.1700000000E+03  5.5199696769E-02  5.4638866197E+00  3.8197923996E-04  3.7932779120E-04  1.7666894073E-01
  6.1750000000E+03  5.5196054804E-02  5.4602989409E+00  3.8277384844E-04  3.8011120527E-04  1.7684301606E-01
  6.1800000000E+03  5.5192416026E-02  5.4567165189E+00  3.8356946470E-04  3.8089558905E-04  1.7701705337E-01
  6.1850000000E+03  5.5188780431E-02  5.4531393416E+00  3.8436608920E-04  3.8168094291E-04  1.7719105256E-01
  6.1900000000E+03  5.5185148012E-02  5.4495673971E+00  3.8516372240E-04  3.8246726720E-04  1.7736501355E-01
  6.1950000000E+03  5.5181996227E-02  5.4460006736E+00  3.8596236477E-04  3.8325458533E-04  1.7753893624E-01
  6.2000000000E+03  5.5182414468E-02  5.4424391592E+00  3.8676201676E-04  3.8404304758E-04  1.7771282054E-01
  6.2050000000E+03  5.5182832375E-02  5.4388828422E+00  3.8756267883E-04  3.8483248282E-04  1.7788666637E-01
  6.2100000000E+03  5.5183249948E-02  5.4353317108E+00  3.8836435145E-04  3.8562289143E-04  1.7806047363E-01
  6.2150000000E+03  5.5183667189E-02  5.4317857532E+00  3.8916703507E-04  3.8641427375E-04  1.7823424224E-01
  6.2200000000E+03  5.5184084097E-02  5.4282449577E+00  3.8997073015E-04  3.8720663017E-04  1.7840797210E-01
  6.2250000000E+03  5.5184500674E-02  5.4247093128E+00  3.9077543717E-04  3.8799996105E-04  1.7858166314E-01
  6.2300000000E+03  5.5184916919E-02  5.4211788067E+00  3.9158115656E-04  3.8879426675E-04  1.7875531526E-01
  6.2350000000E+03  5.5185332833E-02  5.4176534279E+00  3.9238788880E-04  3.8958954765E-04  1.7892892837E-01
  6.2400000000E+03  5.5185748417E-02  5.4141331649E+00  3.9319563434E-04  3.9038580410E-04  1.7910250239E-01
  6.2450000000E+03  5.5186163672E-02  5.4106180061E+00  3.9400439364E-04  3.9118303648E-04  1.7927603723E-01
  6.2500000000E+03  5.5186578597E-02  5.4071079400E+00  3.9481416717E-04  3.9198124515E-04  1.7944953281E-01
  6.2550000000E+03  5.5187734620E-02  5.4036140762E+00  3.9562495537E-04  3.9278046808E-04  1.7962298903E-01
  6.2600000000E+03  5.5189281852E-02  5.4001383370E+00  3.9643675871E-04  3.9358068833E-04  1.7979640581E-01
  6.2650000000E+03  5.5190827892E-02  5.3966676058E+00  3.9724957765E-04  3.9438188637E-04  1.7996978308E-01
  6.2700000000E+03  5.5192372742E-02  5.3932018715E+00  3.9806341265E-04  3.9518406259E-04  1.8014312073E-01
  6.2750000000E+03  5.5193916404E-02  5.3897411228E+00  3.9887826416E-04  3.9598721735E-04  1.8031641869E-01
  6.2800000000E+03  5.5195458879E-02  5.3862853487E+00  3.9969413264E-04  3.9679135101E-04  1.8048967687E-01
  6.2850000000E+03  5.5197000170E-02  5.3828345381E+00  4.0051101855E-04  3.9759646394E-04  1.8066289518E-01
  6.2900000000E+03  5.5198540278E-02  5.3793886798E+00  4.0132892235E-04  3.9840255650E-04  1.8083607356E-01
  6.2950000000E+03  5.5200079205E-02  5.3759477628E+00  4.0214784450E-04  3.9920962906E-04  1.8100921190E-01
  6.3000000000E+03  5.5201616954E-02  5.3725117761E+00  4.0296778545E-04  4.0001768197E-04  1.8118231012E-01
  6.3050000000E+03  5.5203153525E-02  5.3690807088E+00  4.0378874566E-04  4.0082671562E-04  1.8135536816E-01
  6.3100000000E+03  5.5205115890E-02  5.3656545500E+00  4.0461072558E-04  4.0163675295E-04  1.8152838591E-01
  6.3150000000E+03  5.5211613126E-02  5.3622332886E+00  4.0543372568E-04  4.0244801294E-04  1.8170136330E-01
  6.3200000000E+03  5.5218105984E-02  5.3588169139E+00  4.0625774641E-04  4.0326025662E-04  1.8187430025E-01
  6.3250000000E+03  5.5224594470E-02  5.3554054150E+00  4.0708278823E-04  4.0407348438E-04  1.8204719667E-01
  6.3300000000E+03  5.5231078591E-02  5.3519987812E+00  4.0790885160E-04  4.0488769657E-04  1.8222005248E-01
  6.3350000000E+03  5.5237558352E-02  5.3485970015E+00  4.0873593696E-04  4.0570289357E-04  1.8239286761E-01
  6.3400000000E+03  5.5244033760E-02  5.3452000654E+00  4.0956404478E-04  4.0651907575E-04  1.8256564197E-01
  6.3450000000E+03  5.5250504821E-02  5.3418079620E+00  4.1039317552E-04  4.0733624346E-04  1.8273837548E-01
  6.3500000000E+03  5.5256971543E-02  5.3384206807E+00  4.1122332962E-04  4.0815439710E-04  1.8291106806E-01
