#[MATERIAL DEFINITION FOR MC-GPU: interaction mean free path and sampling data from PENELOPE 2018]
#[MATERIAL NAME]
# AMORPHOUS CARBON  (6)                                         
#[NOMINAL DENSITY (g/cm^3)]
#   2.00000000
#[NUMBER OF DATA VALUES]
#  23002
#[MEAN FREE PATHS (cm) (ie, average distance between interactions)]
#[Energy (eV)     | Rayleigh        | Compton         | Photoelectric   | TOTAL (+pair prod) (cm) | Rayleigh: max cumul prob F^2]
  5.0000000000E+03  1.3505279066E+00  4.5090166931E+00  2.7850015612E-02  2.7123166456E-02  3.2755488779E-01
  5.0050000000E+03  1.3520859898E+00  4.5071178246E+00  2.7937041564E-02  2.7206264823E-02  3.2779907326E-01
  5.0100000000E+03  1.3536443120E+00  4.5052216506E+00  2.8024252153E-02  2.7289530345E-02  3.2804313648E-01
  5.0150000000E+03  1.3552026632E+00  4.5033281645E+00  2.8111647585E-02  2.7372963080E-02  3.2828707812E-01
  5.0200000000E+03  1.3567611273E+00  4.5014373600E+00  2.8199228066E-02  2.7456563209E-02  3.2853089884E-01
  5.0250000000E+03  1.3583198295E+00  4.4995492305E+00  2.8286993805E-02  2.7540330926E-02  3.2877459930E-01
  5.0300000000E+03  1.3598787695E+00  4.4976637696E+00  2.8374945008E-02  2.7624266377E-02  3.2901818017E-01
  5.0350000000E+03  1.3614379471E+00  4.4957809709E+00  2.8463081882E-02  2.7708369707E-02  3.2926164209E-01
  5.0400000000E+03  1.3629973622E+00  4.4939008280E+00  2.8551404634E-02  2.7792641061E-02  3.2950498573E-01
  5.0450000000E+03  1.3645570145E+00  4.4920233344E+00  2.8639913470E-02  2.7877080583E-02  3.2974821174E-01
  5.0500000000E+03  1.3661169040E+00  4.4901484840E+00  2.8728608599E-02  2.7961688419E-02  3.2999132078E-01
  5.0550000000E+03  1.3676770302E+00  4.4882762702E+00  2.8817490227E-02  2.8046464711E-02  3.3023431349E-01
  5.0600000000E+03  1.3692375171E+00  4.4864066869E+00  2.8906558561E-02  2.8131409658E-02  3.3047719052E-01
  5.0650000000E+03  1.3707984708E+00  4.4845397276E+00  2.8995813808E-02  2.8216523449E-02  3.3071995254E-01
  5.0700000000E+03  1.3723596614E+00  4.4826753863E+00  2.9085256176E-02  2.8301806132E-02  3.3096260018E-01
  5.0750000000E+03  1.3739210884E+00  4.4808136565E+00  2.9174885872E-02  2.8387257849E-02  3.3120513409E-01
  5.0800000000E+03  1.3754827517E+00  4.4789545321E+00  2.9264703102E-02  2.8472878745E-02  3.3144755493E-01
  5.0850000000E+03  1.3770446512E+00  4.4771200190E+00  2.9354708074E-02  2.8558669860E-02  3.3168986333E-01
  5.0900000000E+03  1.3786067866E+00  4.4752901939E+00  2.9444900996E-02  2.8644630539E-02  3.3193205993E-01
  5.0950000000E+03  1.3801691577E+00  4.4734629121E+00  2.9535282074E-02  2.8730760838E-02  3.3217414539E-01
  5.1000000000E+03  1.3817317644E+00  4.4716381677E+00  2.9625851516E-02  2.8817060903E-02  3.3241612034E-01
  5.1050000000E+03  1.3832946064E+00  4.4698159545E+00  2.9716609530E-02  2.8903530874E-02  3.3265798543E-01
  5.1100000000E+03  1.3848573276E+00  4.4679962667E+00  2.9807556322E-02  2.8990170741E-02  3.3289974129E-01
  5.1150000000E+03  1.3864202796E+00  4.4661790983E+00  2.9898692100E-02  2.9076980798E-02  3.3314138856E-01
  5.1200000000E+03  1.3879834660E+00  4.4643644433E+00  2.9990017071E-02  2.9163961190E-02  3.3338292788E-01
  5.1250000000E+03  1.3895468864E+00  4.4625522957E+00  3.0081531443E-02  2.9251112059E-02  3.3362435988E-01
  5.1300000000E+03  1.3911105408E+00  4.4607426498E+00  3.0173235423E-02  2.9338433548E-02  3.3386568520E-01
  5.1350000000E+03  1.3926744288E+00  4.4589354996E+00  3.0265129219E-02  2.9425925800E-02  3.3410690448E-01
  5.1400000000E+03  1.3942385504E+00  4.4571308391E+00  3.0357213038E-02  2.9513588956E-02  3.3434801834E-01
  5.1450000000E+03  1.3958029054E+00  4.4553286627E+00  3.0449487087E-02  2.9601423158E-02  3.3458902742E-01
  5.1500000000E+03  1.3973674935E+00  4.4535289645E+00  3.0541951575E-02  2.9689428549E-02  3.3482993234E-01
  5.1550000000E+03  1.3989324977E+00  4.4517317386E+00  3.0634606709E-02  2.9777605353E-02  3.3507073375E-01
  5.1600000000E+03  1.4004978899E+00  4.4499369792E+00  3.0727452696E-02  2.9865953699E-02  3.3531143226E-01
  5.1650000000E+03  1.4020635150E+00  4.4481573454E+00  3.0820489744E-02  2.9954474235E-02  3.3555202851E-01
  5.1700000000E+03  1.4036293730E+00  4.4463903359E+00  3.0913718060E-02  3.0043166999E-02  3.3579252312E-01
  5.1750000000E+03  1.4051954636E+00  4.4446257354E+00  3.1007137853E-02  3.0132031672E-02  3.3603291671E-01
  5.1800000000E+03  1.4067617866E+00  4.4428635384E+00  3.1100749330E-02  3.0221068395E-02  3.3627320992E-01
  5.1850000000E+03  1.4083283418E+00  4.4411037391E+00  3.1194552699E-02  3.0310277310E-02  3.3651340336E-01
  5.1900000000E+03  1.4098951291E+00  4.4393463321E+00  3.1288548167E-02  3.0399658558E-02  3.3675349766E-01
  5.1950000000E+03  1.4114621482E+00  4.4375913117E+00  3.1382735943E-02  3.0489212278E-02  3.3699349344E-01
  5.2000000000E+03  1.4130294292E+00  4.4358386725E+00  3.1477116233E-02  3.0578938627E-02  3.3723339131E-01
  5.2050000000E+03  1.4146006794E+00  4.4340884089E+00  3.1571689246E-02  3.0668839486E-02  3.3747319172E-01
  5.2100000000E+03  1.4161721657E+00  4.4323405155E+00  3.1666455190E-02  3.0758913256E-02  3.3771289513E-01
  5.2150000000E+03  1.4177438878E+00  4.4305949867E+00  3.1761414273E-02  3.0849160075E-02  3.3795250205E-01
  5.2200000000E+03  1.4193158455E+00  4.4288518171E+00  3.1856566701E-02  3.0939580084E-02  3.3819201297E-01
  5.2250000000E+03  1.4208880387E+00  4.4271110013E+00  3.1951912685E-02  3.1030173423E-02  3.3843142838E-01
  5.2300000000E+03  1.4224604672E+00  4.4253725337E+00  3.2047452430E-02  3.1120940232E-02  3.3867074878E-01
  5.2350000000E+03  1.4240331308E+00  4.4236364091E+00  3.2143186146E-02  3.1211880650E-02  3.3890997465E-01
  5.2400000000E+03  1.4256060292E+00  4.4219026221E+00  3.2239114039E-02  3.1302994817E-02  3.3914910651E-01
  5.2450000000E+03  1.4271791623E+00  4.4201711671E+00  3.2335236319E-02  3.1394282873E-02  3.3938814482E-01
  5.2500000000E+03  1.4287603286E+00  4.4184622035E+00  3.2431553194E-02  3.1485749767E-02  3.3962709009E-01
  5.2550000000E+03  1.4303541520E+00  4.4167569754E+00  3.2528064870E-02  3.1577396996E-02  3.3986594281E-01
  5.2600000000E+03  1.4319482350E+00  4.4150540262E+00  3.2624771557E-02  3.1669218627E-02  3.4010470347E-01
  5.2650000000E+03  1.4335425774E+00  4.4133533506E+00  3.2721673462E-02  3.1761214798E-02  3.4034337255E-01
  5.2700000000E+03  1.4351371792E+00  4.4116549436E+00  3.2818770794E-02  3.1853385650E-02  3.4058195054E-01
  5.2750000000E+03  1.4367320399E+00  4.4099587998E+00  3.2916063761E-02  3.1945731321E-02  3.4082043793E-01
  5.2800000000E+03  1.4383271595E+00  4.4082649142E+00  3.3013552570E-02  3.2038251951E-02  3.4105883522E-01
  5.2850000000E+03  1.4399225378E+00  4.4065732816E+00  3.3111237431E-02  3.2130947676E-02  3.4129714287E-01
  5.2900000000E+03  1.4415181744E+00  4.4048838969E+00  3.3209118551E-02  3.2223818638E-02  3.4153536139E-01
  5.2950000000E+03  1.4431140693E+00  4.4031967549E+00  3.3307196139E-02  3.2316864973E-02  3.4177349126E-01
  5.3000000000E+03  1.4447101175E+00  4.4015118507E+00  3.3405470402E-02  3.2410086767E-02  3.4201153296E-01
  5.3050000000E+03  1.4463063727E+00  4.3998291790E+00  3.3503941550E-02  3.2503484186E-02  3.4224948697E-01
  5.3100000000E+03  1.4479028853E+00  4.3981487349E+00  3.3602609790E-02  3.2597057392E-02  3.4248735378E-01
  5.3150000000E+03  1.4494996552E+00  4.3964705133E+00  3.3701475331E-02  3.2690806523E-02  3.4272513387E-01
  5.3200000000E+03  1.4510966821E+00  4.3947945092E+00  3.3800538381E-02  3.2784731717E-02  3.4296282773E-01
  5.3250000000E+03  1.4526939658E+00  4.3931207175E+00  3.3899799148E-02  3.2878833112E-02  3.4320043583E-01
  5.3300000000E+03  1.4542915061E+00  4.3914500396E+00  3.3999257842E-02  3.2973110896E-02  3.4343795865E-01
  5.3350000000E+03  1.4558893029E+00  4.3898010725E+00  3.4098914670E-02  3.3067566263E-02  3.4367539669E-01
  5.3400000000E+03  1.4574873559E+00  4.3881542685E+00  3.4198769841E-02  3.3162198256E-02  3.4391275041E-01
  5.3450000000E+03  1.4590856649E+00  4.3865096225E+00  3.4298823563E-02  3.3257007010E-02  3.4415002030E-01
  5.3500000000E+03  1.4606841444E+00  4.3848671299E+00  3.4399076045E-02  3.3351992620E-02  3.4438720683E-01
  5.3550000000E+03  1.4622828668E+00  4.3832267858E+00  3.4499527495E-02  3.3447155259E-02  3.4462431049E-01
  5.3600000000E+03  1.4638818446E+00  4.3815885853E+00  3.4600178123E-02  3.3542495070E-02  3.4486133175E-01
  5.3650000000E+03  1.4654810774E+00  4.3799525237E+00  3.4701028136E-02  3.3638012189E-02  3.4509827108E-01
  5.3700000000E+03  1.4670805652E+00  4.3783185962E+00  3.4802077743E-02  3.3733706754E-02  3.4533512898E-01
  5.3750000000E+03  1.4686803077E+00  4.3766867980E+00  3.4903327153E-02  3.3829578900E-02  3.4557190590E-01
  5.3800000000E+03  1.4702803048E+00  4.3750571244E+00  3.5004776574E-02  3.3925628763E-02  3.4580860233E-01
  5.3850000000E+03  1.4718805561E+00  4.3734295706E+00  3.5106426216E-02  3.4021856479E-02  3.4604521875E-01
  5.3900000000E+03  1.4734810616E+00  4.3718041320E+00  3.5208276286E-02  3.4118262184E-02  3.4628175562E-01
  5.3950000000E+03  1.4750818211E+00  4.3701808037E+00  3.5310326994E-02  3.4214846013E-02  3.4651821343E-01
  5.4000000000E+03  1.4766830057E+00  4.3685595811E+00  3.5412578548E-02  3.4311608194E-02  3.4675459264E-01
  5.4050000000E+03  1.4782844479E+00  4.3669404596E+00  3.5515031157E-02  3.4408548774E-02  3.4699089373E-01
  5.4100000000E+03  1.4798861438E+00  4.3653234345E+00  3.5617685029E-02  3.4505667884E-02  3.4722711718E-01
  5.4150000000E+03  1.4814880930E+00  4.3637085010E+00  3.5720540375E-02  3.4602965659E-02  3.4746326345E-01
  5.4200000000E+03  1.4830902954E+00  4.3621126831E+00  3.5823597402E-02  3.4700443313E-02  3.4769933301E-01
  5.4250000000E+03  1.4846927507E+00  4.3605211538E+00  3.5926856319E-02  3.4798100057E-02  3.4793532634E-01
  5.4300000000E+03  1.4862954589E+00  4.3589316706E+00  3.6030317335E-02  3.4895935884E-02  3.4817124392E-01
  5.4350000000E+03  1.4878984197E+00  4.3573442289E+00  3.6133980660E-02  3.4993950929E-02  3.4840708620E-01
  5.4400000000E+03  1.4895016329E+00  4.3557588243E+00  3.6237846502E-02  3.5092145325E-02  3.4864285366E-01
  5.4450000000E+03  1.4911050983E+00  4.3541754522E+00  3.6341915069E-02  3.5190519208E-02  3.4887854678E-01
  5.4500000000E+03  1.4927088343E+00  4.3525941082E+00  3.6446186572E-02  3.5289072722E-02  3.4911416601E-01
  5.4550000000E+03  1.4943128223E+00  4.3510147878E+00  3.6550661219E-02  3.5387805990E-02  3.4934971183E-01
  5.4600000000E+03  1.4959170619E+00  4.3494374867E+00  3.6655339218E-02  3.5486719145E-02  3.4958518471E-01
  5.4650000000E+03  1.4975215531E+00  4.3478622002E+00  3.6760220780E-02  3.5585812322E-02  3.4982058512E-01
  5.4700000000E+03  1.4991262955E+00  4.3462889242E+00  3.6865306113E-02  3.5685085654E-02  3.5005591352E-01
  5.4750000000E+03  1.5007312890E+00  4.3447176540E+00  3.6970595426E-02  3.5784539273E-02  3.5029117038E-01
  5.4800000000E+03  1.5023365334E+00  4.3431483855E+00  3.7076088928E-02  3.5884173314E-02  3.5052635616E-01
  5.4850000000E+03  1.5039420285E+00  4.3415811141E+00  3.7181786829E-02  3.5983987908E-02  3.5076147135E-01
  5.4900000000E+03  1.5055477742E+00  4.3400158356E+00  3.7287689338E-02  3.6083983190E-02  3.5099651639E-01
  5.4950000000E+03  1.5071537702E+00  4.3384525455E+00  3.7393796664E-02  3.6184159290E-02  3.5123149176E-01
  5.5000000000E+03  1.5087598998E+00  4.3368912396E+00  3.7500109015E-02  3.6284516275E-02  3.5146639793E-01
  5.5050000000E+03  1.5103662689E+00  4.3353400393E+00  3.7607123081E-02  3.6385519657E-02  3.5170123535E-01
  5.5100000000E+03  1.5119728877E+00  4.3338008367E+00  3.7714344963E-02  3.6486707064E-02  3.5193600449E-01
  5.5150000000E+03  1.5135797558E+00  4.3322635760E+00  3.7821774877E-02  3.6588077927E-02  3.5217070583E-01
  5.5200000000E+03  1.5151868732E+00  4.3307282529E+00  3.7929413037E-02  3.6689632382E-02  3.5240533976E-01
  5.5250000000E+03  1.5167942396E+00  4.3291948632E+00  3.8037259657E-02  3.6791370563E-02  3.5263990667E-01
  5.5300000000E+03  1.5184018550E+00  4.3276634028E+00  3.8145314952E-02  3.6893292607E-02  3.5287440696E-01
  5.5350000000E+03  1.5200097189E+00  4.3261338674E+00  3.8253579137E-02  3.6995398649E-02  3.5310884101E-01
  5.5400000000E+03  1.5216178314E+00  4.3246062530E+00  3.8362052426E-02  3.7097688823E-02  3.5334320922E-01
  5.5450000000E+03  1.5232261922E+00  4.3230805553E+00  3.8470735033E-02  3.7200163264E-02  3.5357751198E-01
  5.5500000000E+03  1.5248348392E+00  4.3215567703E+00  3.8579627174E-02  3.7302822130E-02  3.5381174967E-01
  5.5550000000E+03  1.5264437470E+00  4.3200348939E+00  3.8688729062E-02  3.7405665540E-02  3.5404592268E-01
  5.5600000000E+03  1.5280529026E+00  4.3185149219E+00  3.8798040914E-02  3.7508693621E-02  3.5428003141E-01
  5.5650000000E+03  1.5296623059E+00  4.3169968502E+00  3.8907562942E-02  3.7611906507E-02  3.5451407624E-01
  5.5700000000E+03  1.5312719566E+00  4.3154806747E+00  3.9017295363E-02  3.7715304332E-02  3.5474805757E-01
  5.5750000000E+03  1.5328818546E+00  4.3139663915E+00  3.9127238390E-02  3.7818887230E-02  3.5498197577E-01
  5.5800000000E+03  1.5344919996E+00  4.3124539964E+00  3.9237392239E-02  3.7922655334E-02  3.5521583125E-01
  5.5850000000E+03  1.5361023915E+00  4.3109434854E+00  3.9347757124E-02  3.8026608778E-02  3.5544962438E-01
  5.5900000000E+03  1.5377130302E+00  4.3094348544E+00  3.9458333261E-02  3.8130747696E-02  3.5568335555E-01
  5.5950000000E+03  1.5393239153E+00  4.3079406061E+00  3.9569120863E-02  3.8235073205E-02  3.5591702516E-01
  5.6000000000E+03  1.5409351578E+00  4.3064528363E+00  3.9680120147E-02  3.8339584900E-02  3.5615063359E-01
  5.6050000000E+03  1.5425467649E+00  4.3049669073E+00  3.9791331326E-02  3.8444282556E-02  3.5638418122E-01
  5.6100000000E+03  1.5441586182E+00  4.3034828153E+00  3.9902754616E-02  3.8549166233E-02  3.5661766845E-01
  5.6150000000E+03  1.5457707176E+00  4.3020005564E+00  4.0014390232E-02  3.8654236063E-02  3.5685109566E-01
  5.6200000000E+03  1.5473830630E+00  4.3005201266E+00  4.0126238389E-02  3.8759492179E-02  3.5708446323E-01
  5.6250000000E+03  1.5489956540E+00  4.2990415222E+00  4.0238299302E-02  3.8864934714E-02  3.5731777156E-01
  5.6300000000E+03  1.5506084905E+00  4.2975647392E+00  4.0350573185E-02  3.8970563799E-02  3.5755102103E-01
  5.6350000000E+03  1.5522215724E+00  4.2960897737E+00  4.0463060255E-02  3.9076379567E-02  3.5778421203E-01
  5.6400000000E+03  1.5538348995E+00  4.2946166220E+00  4.0575760725E-02  3.9182382149E-02  3.5801734494E-01
  5.6450000000E+03  1.5554484715E+00  4.2931452802E+00  4.0688674812E-02  3.9288571676E-02  3.5825042014E-01
  5.6500000000E+03  1.5570622714E+00  4.2916757444E+00  4.0801802730E-02  3.9394948271E-02  3.5848343803E-01
  5.6550000000E+03  1.5586761976E+00  4.2902080109E+00  4.0915144694E-02  3.9501511998E-02  3.5871639899E-01
  5.6600000000E+03  1.5602903680E+00  4.2887420758E+00  4.1028700920E-02  3.9608263064E-02  3.5894930340E-01
  5.6650000000E+03  1.5619047826E+00  4.2872779354E+00  4.1142471623E-02  3.9715201600E-02  3.5918215165E-01
  5.6700000000E+03  1.5635194411E+00  4.2858155859E+00  4.1256457018E-02  3.9822327738E-02  3.5941494412E-01
  5.6750000000E+03  1.5651343434E+00  4.2843550235E+00  4.1370657321E-02  3.9929641607E-02  3.5964768121E-01
  5.6800000000E+03  1.5667494892E+00  4.2828962444E+00  4.1485072746E-02  4.0037143338E-02  3.5988036328E-01
  5.6850000000E+03  1.5683648785E+00  4.2814509913E+00  4.1599703509E-02  4.0144834095E-02  3.6011299073E-01
  5.6900000000E+03  1.5699805109E+00  4.2800118990E+00  4.1714549826E-02  4.0252713375E-02  3.6034556395E-01
  5.6950000000E+03  1.5715963864E+00  4.2785745537E+00  4.1829611911E-02  4.0360780922E-02  3.6057808330E-01
  5.7000000000E+03  1.5732125048E+00  4.2771389519E+00  4.1944889981E-02  4.0469036867E-02  3.6081054919E-01
  5.7050000000E+03  1.5748286910E+00  4.2757050899E+00  4.2060384250E-02  4.0577481224E-02  3.6104296200E-01
  5.7100000000E+03  1.5764450340E+00  4.2742729641E+00  4.2176094935E-02  4.0686114179E-02  3.6127532210E-01
  5.7150000000E+03  1.5780616191E+00  4.2728425709E+00  4.2292022249E-02  4.0794935920E-02  3.6150762988E-01
  5.7200000000E+03  1.5796784461E+00  4.2714139066E+00  4.2408166411E-02  4.0903946575E-02  3.6173988573E-01
  5.7250000000E+03  1.5812955147E+00  4.2699869676E+00  4.2524527633E-02  4.1013146274E-02  3.6197209002E-01
  5.7300000000E+03  1.5829128248E+00  4.2685617504E+00  4.2641106133E-02  4.1122535145E-02  3.6220424315E-01
  5.7350000000E+03  1.5845303763E+00  4.2671382514E+00  4.2757902126E-02  4.1232113317E-02  3.6243634549E-01
  5.7400000000E+03  1.5861481689E+00  4.2657164670E+00  4.2874915827E-02  4.1341880919E-02  3.6266839743E-01
  5.7450000000E+03  1.5877662025E+00  4.2642963937E+00  4.2992147452E-02  4.1451838079E-02  3.6290039935E-01
  5.7500000000E+03  1.5893844769E+00  4.2628780278E+00  4.3109597216E-02  4.1561984925E-02  3.6313235164E-01
  5.7550000000E+03  1.5910030488E+00  4.2614613660E+00  4.3227265337E-02  4.1672321624E-02  3.6336425467E-01
  5.7600000000E+03  1.5926222779E+00  4.2600464046E+00  4.3345152028E-02  4.1782848554E-02  3.6359610883E-01
  5.7650000000E+03  1.5942417479E+00  4.2586331402E+00  4.3463257506E-02  4.1893565555E-02  3.6382791451E-01
  5.7700000000E+03  1.5958614586E+00  4.2572215691E+00  4.3581581986E-02  4.2004472757E-02  3.6405967208E-01
  5.7750000000E+03  1.5974814097E+00  4.2558183000E+00  4.3700125685E-02  4.2115570934E-02  3.6429138193E-01
  5.7800000000E+03  1.5991016012E+00  4.2544252972E+00  4.3818888818E-02  4.2226860418E-02  3.6452304444E-01
  5.7850000000E+03  1.6007220328E+00  4.2530339544E+00  4.3937871602E-02  4.2338340500E-02  3.6475465999E-01
  5.7900000000E+03  1.6023427044E+00  4.2516442680E+00  4.4057074251E-02  4.2450011306E-02  3.6498622897E-01
  5.7950000000E+03  1.6039636158E+00  4.2502562346E+00  4.4176496982E-02  4.2561872963E-02  3.6521775176E-01
  5.8000000000E+03  1.6055847668E+00  4.2488698509E+00  4.4296140010E-02  4.2673925598E-02  3.6544922874E-01
  5.8050000000E+03  1.6072061573E+00  4.2474851135E+00  4.4416003553E-02  4.2786169338E-02  3.6568066030E-01
  5.8100000000E+03  1.6088275854E+00  4.2461020190E+00  4.4536087825E-02  4.2898604164E-02  3.6591204680E-01
  5.8150000000E+03  1.6104490267E+00  4.2447205640E+00  4.4656393042E-02  4.3011230185E-02  3.6614338861E-01
  5.8200000000E+03  1.6120707064E+00  4.2433407452E+00  4.4776919421E-02  4.3124047686E-02  3.6637468589E-01
  5.8250000000E+03  1.6136926244E+00  4.2419625593E+00  4.4897667178E-02  4.3237056794E-02  3.6660593895E-01
  5.8300000000E+03  1.6153147805E+00  4.2405860030E+00  4.5018636529E-02  4.3350257633E-02  3.6683714810E-01
  5.8350000000E+03  1.6169371745E+00  4.2392110728E+00  4.5139827689E-02  4.3463650329E-02  3.6706831364E-01
  5.8400000000E+03  1.6185598063E+00  4.2378377655E+00  4.5261240876E-02  4.3577235007E-02  3.6729943588E-01
  5.8450000000E+03  1.6201826758E+00  4.2364660778E+00  4.5382876304E-02  4.3691011793E-02  3.6753051512E-01
  5.8500000000E+03  1.6218057827E+00  4.2350960064E+00  4.5504734191E-02  4.3804980811E-02  3.6776155166E-01
  5.8550000000E+03  1.6234291268E+00  4.2337275481E+00  4.5626814753E-02  4.3919142187E-02  3.6799254582E-01
  5.8600000000E+03  1.6250527081E+00  4.2323606994E+00  4.5749118205E-02  4.4033496043E-02  3.6822349790E-01
  5.8650000000E+03  1.6266765346E+00  4.2309954573E+00  4.5871644764E-02  4.4148042512E-02  3.6845440821E-01
  5.8700000000E+03  1.6283006011E+00  4.2296439343E+00  4.5994394646E-02  4.4262783041E-02  3.6868527704E-01
  5.8750000000E+03  1.6299249043E+00  4.2282961662E+00  4.6117368068E-02  4.4377716676E-02  3.6891610471E-01
  5.8800000000E+03  1.6315494438E+00  4.2269499737E+00  4.6240565245E-02  4.4492843306E-02  3.6914689152E-01
  5.8850000000E+03  1.6331742197E+00  4.2256053534E+00  4.6363986395E-02  4.4608163054E-02  3.6937763778E-01
  5.8900000000E+03  1.6347992317E+00  4.2242623023E+00  4.6487631733E-02  4.4723676043E-02  3.6960834380E-01
  5.8950000000E+03  1.6364244796E+00  4.2229208171E+00  4.6611501477E-02  4.4839382397E-02  3.6983900988E-01
  5.9000000000E+03  1.6380499633E+00  4.2215808947E+00  4.6735595841E-02  4.4955282239E-02  3.7006963632E-01
  5.9050000000E+03  1.6396756826E+00  4.2202425320E+00  4.6859915044E-02  4.5071375693E-02  3.7030022343E-01
  5.9100000000E+03  1.6413016374E+00  4.2189057258E+00  4.6984459301E-02  4.5187662881E-02  3.7053077152E-01
  5.9150000000E+03  1.6429278275E+00  4.2175704730E+00  4.7109228828E-02  4.5304143926E-02  3.7076128090E-01
  5.9200000000E+03  1.6445546975E+00  4.2162367705E+00  4.7234223843E-02  4.5420819289E-02  3.7099175186E-01
  5.9250000000E+03  1.6461818660E+00  4.2149046152E+00  4.7359444562E-02  4.5537688805E-02  3.7122218473E-01
  5.9300000000E+03  1.6478092698E+00  4.2135740039E+00  4.7484891201E-02  4.5654752548E-02  3.7145257979E-01
  5.9350000000E+03  1.6494369089E+00  4.2122449337E+00  4.7610563977E-02  4.5772010640E-02  3.7168293737E-01
  5.9400000000E+03  1.6510647830E+00  4.2109174013E+00  4.7736463107E-02  4.5889463202E-02  3.7191325776E-01
  5.9450000000E+03  1.6526928920E+00  4.2095914038E+00  4.7862588807E-02  4.6007110357E-02  3.7214354127E-01
  5.9500000000E+03  1.6543212357E+00  4.2082669381E+00  4.7988941294E-02  4.6124952225E-02  3.7237378821E-01
  5.9550000000E+03  1.6559498139E+00  4.2069440011E+00  4.8115520785E-02  4.6242988929E-02  3.7260399889E-01
  5.9600000000E+03  1.6575786266E+00  4.2056225898E+00  4.8242327496E-02  4.6361220589E-02  3.7283417361E-01
  5.9650000000E+03  1.6592076734E+00  4.2043156017E+00  4.8369361644E-02  4.6479648903E-02  3.7306431267E-01
  5.9700000000E+03  1.6608369544E+00  4.2030106283E+00  4.8496623446E-02  4.6598272494E-02  3.7329441640E-01
  5.9750000000E+03  1.6624658294E+00  4.2017071519E+00  4.8624113119E-02  4.6717090915E-02  3.7352448508E-01
  5.9800000000E+03  1.6640948894E+00  4.2004051696E+00  4.8751830879E-02  4.6836104750E-02  3.7375451903E-01
  5.9850000000E+03  1.6657241821E+00  4.1991046783E+00  4.8879776944E-02  4.6955314156E-02  3.7398451856E-01
  5.9900000000E+03  1.6673537074E+00  4.1978056752E+00  4.9007951529E-02  4.7074719254E-02  3.7421448398E-01
  5.9950000000E+03  1.6689834653E+00  4.1965081574E+00  4.9136354853E-02  4.7194320165E-02  3.7444441558E-01
  6.0000000000E+03  1.6706134555E+00  4.1952121217E+00  4.9264987132E-02  4.7314117007E-02  3.7467431369E-01
  6.0050000000E+03  1.6722436778E+00  4.1939175655E+00  4.9394622276E-02  4.7434823416E-02  3.7490417860E-01
  6.0100000000E+03  1.6738741321E+00  4.1926244856E+00  4.9524490218E-02  4.7555728913E-02  3.7513401062E-01
  6.0150000000E+03  1.6755048183E+00  4.1913328793E+00  4.9654591185E-02  4.7676833622E-02  3.7536381006E-01
  6.0200000000E+03  1.6771357361E+00  4.1900427436E+00  4.9784925398E-02  4.7798137665E-02  3.7559357723E-01
  6.0250000000E+03  1.6787668855E+00  4.1887540756E+00  4.9915493083E-02  4.7919641167E-02  3.7582331244E-01
  6.0300000000E+03  1.6803988045E+00  4.1874668724E+00  5.0046294463E-02  4.8041344690E-02  3.7605301599E-01
  6.0350000000E+03  1.6820310288E+00  4.1861811312E+00  5.0177329762E-02  4.8163247981E-02  3.7628268820E-01
  6.0400000000E+03  1.6836634848E+00  4.1848968491E+00  5.0308599204E-02  4.8285351102E-02  3.7651232936E-01
  6.0450000000E+03  1.6852961724E+00  4.1836140232E+00  5.0440103014E-02  4.8407654177E-02  3.7674193980E-01
  6.0500000000E+03  1.6869290913E+00  4.1823326506E+00  5.0571841415E-02  4.8530157327E-02  3.7697151981E-01
  6.0550000000E+03  1.6885622416E+00  4.1810527286E+00  5.0703814631E-02  4.8652860675E-02  3.7720106971E-01
  6.0600000000E+03  1.6901956229E+00  4.1797840158E+00  5.0836022886E-02  4.8775765672E-02  3.7743058980E-01
  6.0650000000E+03  1.6918292351E+00  4.1785196233E+00  5.0968466405E-02  4.8898871520E-02  3.7766008039E-01
  6.0700000000E+03  1.6934630781E+00  4.1772566548E+00  5.1101145412E-02  4.9022177948E-02  3.7788954180E-01
  6.0750000000E+03  1.6950971518E+00  4.1759951074E+00  5.1234060131E-02  4.9145685078E-02  3.7811897433E-01
  6.0800000000E+03  1.6967314558E+00  4.1747349785E+00  5.1367210786E-02  4.9269393031E-02  3.7834837829E-01
  6.0850000000E+03  1.6983657838E+00  4.1734762652E+00  5.1500597602E-02  4.9393301753E-02  3.7857775399E-01
  6.0900000000E+03  1.7000002652E+00  4.1722189647E+00  5.1634220802E-02  4.9517411476E-02  3.7880710174E-01
  6.0950000000E+03  1.7016349764E+00  4.1709630745E+00  5.1768080612E-02  4.9641722382E-02  3.7903642185E-01
  6.1000000000E+03  1.7032699170E+00  4.1697085916E+00  5.1902177255E-02  4.9766234593E-02  3.7926571470E-01
  6.1050000000E+03  1.7049050870E+00  4.1684555135E+00  5.2036510956E-02  4.9890948230E-02  3.7949498066E-01
  6.1100000000E+03  1.7065404863E+00  4.1672038373E+00  5.2171081939E-02  5.0015863413E-02  3.7972421998E-01
  6.1150000000E+03  1.7081761145E+00  4.1659535603E+00  5.2305890429E-02  5.0140980261E-02  3.7995343289E-01
  6.1200000000E+03  1.7098119717E+00  4.1647046799E+00  5.2440936650E-02  5.0266298894E-02  3.8018261966E-01
  6.1250000000E+03  1.7114480576E+00  4.1634571933E+00  5.2576220827E-02  5.0391819432E-02  3.8041178053E-01
  6.1300000000E+03  1.7130843721E+00  4.1622110979E+00  5.2711743184E-02  5.0517541995E-02  3.8064091574E-01
  6.1350000000E+03  1.7147209151E+00  4.1609663910E+00  5.2847503946E-02  5.0643466702E-02  3.8087002554E-01
  6.1400000000E+03  1.7163576492E+00  4.1597230698E+00  5.2983503337E-02  5.0769593639E-02  3.8109911019E-01
  6.1450000000E+03  1.7179945706E+00  4.1584811318E+00  5.3119741582E-02  5.0895922921E-02  3.8132816993E-01
  6.1500000000E+03  1.7196317199E+00  4.1572405743E+00  5.3256218905E-02  5.1022454703E-02  3.8155720501E-01
  6.1550000000E+03  1.7212690969E+00  4.1560046580E+00  5.3392935532E-02  5.1149189598E-02  3.8178621568E-01
  6.1600000000E+03  1.7229067015E+00  4.1547788259E+00  5.3529891686E-02  5.1276128562E-02  3.8201520218E-01
  6.1650000000E+03  1.7245445335E+00  4.1535543494E+00  5.3667087594E-02  5.1403270397E-02  3.8224416477E-01
  6.1700000000E+03  1.7261825928E+00  4.1523312261E+00  5.3804523478E-02  5.1530615224E-02  3.8247310370E-01
  6.1750000000E+03  1.7278208792E+00  4.1511094533E+00  5.3942199565E-02  5.1658163158E-02  3.8270201921E-01
  6.1800000000E+03  1.7294593926E+00  4.1498890284E+00  5.4080116079E-02  5.1785914318E-02  3.8293091155E-01
  6.1850000000E+03  1.7310981328E+00  4.1486699490E+00  5.4218273245E-02  5.1913868821E-02  3.8315978098E-01
  6.1900000000E+03  1.7327370996E+00  4.1474522123E+00  5.4356671287E-02  5.2042026785E-02  3.8338862774E-01
  6.1950000000E+03  1.7343763061E+00  4.1462358158E+00  5.4495310431E-02  5.2170388338E-02  3.8361745209E-01
  6.2000000000E+03  1.7360158372E+00  4.1450207571E+00  5.4634190901E-02  5.2298953674E-02  3.8384625427E-01
  6.2050000000E+03  1.7376555946E+00  4.1438070334E+00  5.4773312923E-02  5.2427722822E-02  3.8407503453E-01
  6.2100000000E+03  1.7392955782E+00  4.1425946424E+00  5.4912676721E-02  5.2556695899E-02  3.8430379313E-01
  6.2150000000E+03  1.7409357878E+00  4.1413835814E+00  5.5052282520E-02  5.2685873019E-02  3.8453253032E-01
  6.2200000000E+03  1.7425762232E+00  4.1401738480E+00  5.5192130546E-02  5.2815254300E-02  3.8476124634E-01
  6.2250000000E+03  1.7442168844E+00  4.1389654395E+00  5.5332221024E-02  5.2944839857E-02  3.8498994146E-01
  6.2300000000E+03  1.7458577712E+00  4.1377583536E+00  5.5472554178E-02  5.3074629806E-02  3.8521861591E-01
  6.2350000000E+03  1.7474988834E+00  4.1365525877E+00  5.5613130233E-02  5.3204624263E-02  3.8544726995E-01
  6.2400000000E+03  1.7491402209E+00  4.1353481392E+00  5.5753949416E-02  5.3334823342E-02  3.8567590384E-01
  6.2450000000E+03  1.7507817835E+00  4.1341450058E+00  5.5895011950E-02  5.3465227159E-02  3.8590451783E-01
  6.2500000000E+03  1.7524235710E+00  4.1329431848E+00  5.6036318062E-02  5.3595835828E-02  3.8613311216E-01
  6.2550000000E+03  1.7540656346E+00  4.1317478791E+00  5.6177867976E-02  5.3726650393E-02  3.8636168710E-01
  6.2600000000E+03  1.7557079499E+00  4.1305599972E+00  5.6319661918E-02  5.3857671115E-02  3.8659024288E-01
  6.2650000000E+03  1.7573504898E+00  4.1293734049E+00  5.6461700113E-02  5.3988897051E-02  3.8681877977E-01
  6.2700000000E+03  1.7589932542E+00  4.1281880996E+00  5.6603982785E-02  5.4120328317E-02  3.8704729803E-01
  6.2750000000E+03  1.7606362430E+00  4.1270040790E+00  5.6746510162E-02  5.4251965026E-02  3.8727579789E-01
  6.2800000000E+03  1.7622794559E+00  4.1258213407E+00  5.6889282468E-02  5.4383807292E-02  3.8750427962E-01
  6.2850000000E+03  1.7639228928E+00  4.1246398822E+00  5.7032299928E-02  5.4515855228E-02  3.8773274347E-01
  6.2900000000E+03  1.7655665535E+00  4.1234597011E+00  5.7175562767E-02  5.4648108948E-02  3.8796118969E-01
  6.2950000000E+03  1.7672104381E+00  4.1222807951E+00  5.7319071212E-02  5.4780568565E-02  3.8818961854E-01
  6.3000000000E+03  1.7688545461E+00  4.1211031618E+00  5.7462825488E-02  5.4913234192E-02  3.8841803028E-01
  6.3050000000E+03  1.7704988777E+00  4.1199267987E+00  5.7606825820E-02  5.5046105943E-02  3.8864642515E-01
  6.3100000000E+03  1.7721434077E+00  4.1187517035E+00  5.7751072433E-02  5.5179183904E-02  3.8887480341E-01
  6.3150000000E+03  1.7737878982E+00  4.1175778739E+00  5.7895565554E-02  5.5312467958E-02  3.8910316532E-01
  6.3200000000E+03  1.7754326114E+00  4.1164053075E+00  5.8040305408E-02  5.5445958470E-02  3.8933151113E-01
  6.3250000000E+03  1.7770775472E+00  4.1152340018E+00  5.8185292220E-02  5.5579655552E-02  3.8955984109E-01
  6.3300000000E+03  1.7787227053E+00  4.1140639546E+00  5.8330526217E-02  5.5713559315E-02  3.8978815547E-01
  6.3350000000E+03  1.7803680857E+00  4.1128951636E+00  5.8476007623E-02  5.5847669872E-02  3.9001645452E-01
  6.3400000000E+03  1.7820136881E+00  4.1117276263E+00  5.8621736665E-02  5.5981987334E-02  3.9024473850E-01
  6.3450000000E+03  1.7836595126E+00  4.1105613405E+00  5.8767713568E-02  5.6116511812E-02  3.9047300765E-01
  6.3500000000E+03  1.7853055588E+00  4.1093963037E+00  5.8913938558E-02  5.6251243417E-02  3.9070126225E-01
