#[MATERIAL DEFINITION FOR MC-GPU: interaction mean free path and sampling data from PENELOPE 2018]
#[MATERIAL NAME]
# WATER, LIQUID  --ICRU90  (278)                                
#[NOMINAL DENSITY (g/cm^3)]
#   0.99821000
#[NUMBER OF DATA VALUES]
#  23002
#[MEAN FREE PATHS (cm) (ie, average distance between interactions)]
#[Energy (eV)     | Rayleigh        | Compton         | Photoelectric   | TOTAL (+pair prod) (cm) | Rayleigh: max cumul prob F^2]
  5.0000000000E+03  1.7305139559E+00  8.4773683369E+00  2.4523897993E-02  2.4112435667E-02  3.5515424794E-01
  5.0050000000E+03  1.7325927564E+00  8.4719825814E+00  2.4598441129E-02  2.4184856407E-02  3.5541836146E-01
  5.0100000000E+03  1.7346719747E+00  8.4666056200E+00  2.4673136075E-02  2.4257419985E-02  3.5568213601E-01
  5.0150000000E+03  1.7367522580E+00  8.4612374298E+00  2.4747982990E-02  2.4330126653E-02  3.5594557229E-01
  5.0200000000E+03  1.7388333465E+00  8.4558779876E+00  2.4822982031E-02  2.4402976490E-02  3.5620867101E-01
  5.0250000000E+03  1.7409148532E+00  8.4505272705E+00  2.4898133353E-02  2.4475969547E-02  3.5647143288E-01
  5.0300000000E+03  1.7429967778E+00  8.4451852557E+00  2.4973437116E-02  2.4549105951E-02  3.5673385860E-01
  5.0350000000E+03  1.7450791200E+00  8.4398519203E+00  2.5048893476E-02  2.4622385829E-02  3.5699594888E-01
  5.0400000000E+03  1.7471618793E+00  8.4345272416E+00  2.5124502589E-02  2.4695809308E-02  3.5725770441E-01
  5.0450000000E+03  1.7492450556E+00  8.4292111971E+00  2.5200264615E-02  2.4769376515E-02  3.5751912588E-01
  5.0500000000E+03  1.7513286483E+00  8.4239037641E+00  2.5276179709E-02  2.4843087577E-02  3.5778021400E-01
  5.0550000000E+03  1.7534126573E+00  8.4186049203E+00  2.5352248029E-02  2.4916942620E-02  3.5804096946E-01
  5.0600000000E+03  1.7554968064E+00  8.4133146433E+00  2.5428469732E-02  2.4990941716E-02  3.5830139294E-01
  5.0650000000E+03  1.7575808581E+00  8.4080329107E+00  2.5504844975E-02  2.5065084942E-02  3.5856148513E-01
  5.0700000000E+03  1.7596653239E+00  8.4027597004E+00  2.5581373916E-02  2.5139372527E-02  3.5882124672E-01
  5.0750000000E+03  1.7617502036E+00  8.3974949902E+00  2.5658056713E-02  2.5213804600E-02  3.5908067839E-01
  5.0800000000E+03  1.7638354967E+00  8.3922387581E+00  2.5734893521E-02  2.5288381285E-02  3.5933978083E-01
  5.0850000000E+03  1.7659212030E+00  8.3870814564E+00  2.5811884499E-02  2.5363103537E-02  3.5959855470E-01
  5.0900000000E+03  1.7680073222E+00  8.3819411603E+00  2.5889029804E-02  2.5437970744E-02  3.5985700070E-01
  5.0950000000E+03  1.7700938538E+00  8.3768090569E+00  2.5966329593E-02  2.5512982955E-02  3.6011511949E-01
  5.1000000000E+03  1.7721807977E+00  8.3716851251E+00  2.6043784023E-02  2.5588140295E-02  3.6037291174E-01
  5.1050000000E+03  1.7742681534E+00  8.3665693439E+00  2.6121393252E-02  2.5663442889E-02  3.6063037813E-01
  5.1100000000E+03  1.7763574884E+00  8.3614616923E+00  2.6199157437E-02  2.5738891194E-02  3.6088751932E-01
  5.1150000000E+03  1.7784472527E+00  8.3563621496E+00  2.6277076735E-02  2.5814485012E-02  3.6114433597E-01
  5.1200000000E+03  1.7805374300E+00  8.3512706949E+00  2.6355151304E-02  2.5890224465E-02  3.6140082876E-01
  5.1250000000E+03  1.7826280201E+00  8.3461873076E+00  2.6433381301E-02  2.5966109680E-02  3.6165699835E-01
  5.1300000000E+03  1.7847190226E+00  8.3411119670E+00  2.6511766883E-02  2.6042140783E-02  3.6191284539E-01
  5.1350000000E+03  1.7868104372E+00  8.3360446525E+00  2.6590308208E-02  2.6118317899E-02  3.6216837054E-01
  5.1400000000E+03  1.7889022637E+00  8.3309853436E+00  2.6669005433E-02  2.6194641153E-02  3.6242357445E-01
  5.1450000000E+03  1.7909945016E+00  8.3259340200E+00  2.6747858715E-02  2.6271110672E-02  3.6267845778E-01
  5.1500000000E+03  1.7930871506E+00  8.3208906613E+00  2.6826868211E-02  2.6347726581E-02  3.6293302119E-01
  5.1550000000E+03  1.7951794385E+00  8.3158552472E+00  2.6906034080E-02  2.6424488837E-02  3.6318726531E-01
  5.1600000000E+03  1.7972714830E+00  8.3108277575E+00  2.6985356478E-02  2.6501397591E-02  3.6344119073E-01
  5.1650000000E+03  1.7993639358E+00  8.3058614108E+00  2.7064835563E-02  2.6578453654E-02  3.6369479778E-01
  5.1700000000E+03  1.8014567965E+00  8.3009456674E+00  2.7144471492E-02  2.6655657053E-02  3.6394808711E-01
  5.1750000000E+03  1.8035500649E+00  8.2960375810E+00  2.7224264423E-02  2.6733007477E-02  3.6420105949E-01
  5.1800000000E+03  1.8056437406E+00  8.2911371322E+00  2.7304214512E-02  2.6810505053E-02  3.6445371562E-01
  5.1850000000E+03  1.8077378233E+00  8.2862443018E+00  2.7384321918E-02  2.6888149903E-02  3.6470605625E-01
  5.1900000000E+03  1.8098323127E+00  8.2813590706E+00  2.7464586797E-02  2.6965942155E-02  3.6495808211E-01
  5.1950000000E+03  1.8119272084E+00  8.2764814195E+00  2.7545009308E-02  2.7043881931E-02  3.6520979391E-01
  5.2000000000E+03  1.8140225220E+00  8.2716113294E+00  2.7625589607E-02  2.7121969361E-02  3.6546119238E-01
  5.2050000000E+03  1.8161196951E+00  8.2667487815E+00  2.7706327851E-02  2.7200204893E-02  3.6571227823E-01
  5.2100000000E+03  1.8182172757E+00  8.2618937567E+00  2.7787224200E-02  2.7278588326E-02  3.6596305219E-01
  5.2150000000E+03  1.8203152634E+00  8.2570462362E+00  2.7868278809E-02  2.7357119787E-02  3.6621351497E-01
  5.2200000000E+03  1.8224136578E+00  8.2522062013E+00  2.7949491836E-02  2.7435799400E-02  3.6646366727E-01
  5.2250000000E+03  1.8245124588E+00  8.2473736332E+00  2.8030863438E-02  2.7514627290E-02  3.6671350981E-01
  5.2300000000E+03  1.8266116659E+00  8.2425485133E+00  2.8112393774E-02  2.7593603580E-02  3.6696304330E-01
  5.2350000000E+03  1.8287112789E+00  8.2377308231E+00  2.8194083000E-02  2.7672728395E-02  3.6721226843E-01
  5.2400000000E+03  1.8308112975E+00  8.2329205439E+00  2.8275931274E-02  2.7752001860E-02  3.6746118591E-01
  5.2450000000E+03  1.8329117213E+00  8.2281176574E+00  2.8357938754E-02  2.7831424098E-02  3.6770979643E-01
  5.2500000000E+03  1.8350120283E+00  8.2234089248E+00  2.8440105597E-02  2.7910996113E-02  3.6795810070E-01
  5.2550000000E+03  1.8371119089E+00  8.2187136002E+00  2.8522431959E-02  2.7990717040E-02  3.6820609940E-01
  5.2600000000E+03  1.8392121919E+00  8.2140254181E+00  2.8604918000E-02  2.8070587123E-02  3.6845379322E-01
  5.2650000000E+03  1.8413128772E+00  8.2093443607E+00  2.8687563876E-02  2.8150606485E-02  3.6870118286E-01
  5.2700000000E+03  1.8434139644E+00  8.2046704106E+00  2.8770369744E-02  2.8230775252E-02  3.6894826899E-01
  5.2750000000E+03  1.8455154532E+00  8.2000035501E+00  2.8853335763E-02  2.8311093546E-02  3.6919505231E-01
  5.2800000000E+03  1.8476173433E+00  8.1953437619E+00  2.8936462090E-02  2.8391561491E-02  3.6944153349E-01
  5.2850000000E+03  1.8497196344E+00  8.1906910285E+00  2.9019748882E-02  2.8472179212E-02  3.6968771322E-01
  5.2900000000E+03  1.8518223262E+00  8.1860453326E+00  2.9103196297E-02  2.8552946831E-02  3.6993359216E-01
  5.2950000000E+03  1.8539254184E+00  8.1814066570E+00  2.9186804492E-02  2.8633864472E-02  3.7017917099E-01
  5.3000000000E+03  1.8560295220E+00  8.1767749843E+00  2.9270573624E-02  2.8714932406E-02  3.7042445038E-01
  5.3050000000E+03  1.8581343220E+00  8.1721502974E+00  2.9354503852E-02  2.8796150680E-02  3.7066943100E-01
  5.3100000000E+03  1.8602395228E+00  8.1675325793E+00  2.9438595333E-02  2.8877519349E-02  3.7091411352E-01
  5.3150000000E+03  1.8623451239E+00  8.1629218128E+00  2.9522848225E-02  2.8959038536E-02  3.7115849860E-01
  5.3200000000E+03  1.8644511251E+00  8.1583179811E+00  2.9607262684E-02  2.9040708363E-02  3.7140258690E-01
  5.3250000000E+03  1.8665575261E+00  8.1537210670E+00  2.9691838869E-02  2.9122528954E-02  3.7164637909E-01
  5.3300000000E+03  1.8686643266E+00  8.1491350524E+00  2.9776576936E-02  2.9204500482E-02  3.7188987581E-01
  5.3350000000E+03  1.8707715263E+00  8.1446419815E+00  2.9861477045E-02  2.9286624135E-02  3.7213307773E-01
  5.3400000000E+03  1.8728791248E+00  8.1401555932E+00  2.9946539351E-02  2.9368898933E-02  3.7237598549E-01
  5.3450000000E+03  1.8749871219E+00  8.1356758716E+00  3.0031764013E-02  2.9451325000E-02  3.7261859974E-01
  5.3500000000E+03  1.8770948414E+00  8.1312028004E+00  3.0117151188E-02  2.9533902291E-02  3.7286092114E-01
  5.3550000000E+03  1.8792028588E+00  8.1267363636E+00  3.0202701034E-02  2.9616631071E-02  3.7310295033E-01
  5.3600000000E+03  1.8813112728E+00  8.1222765452E+00  3.0288413709E-02  2.9699511486E-02  3.7334468795E-01
  5.3650000000E+03  1.8834200832E+00  8.1178233292E+00  3.0374289370E-02  2.9782543660E-02  3.7358613464E-01
  5.3700000000E+03  1.8855292896E+00  8.1133766996E+00  3.0460328174E-02  2.9865727714E-02  3.7382729104E-01
  5.3750000000E+03  1.8876388919E+00  8.1089366406E+00  3.0546530279E-02  2.9949063771E-02  3.7406815778E-01
  5.3800000000E+03  1.8897488897E+00  8.1045031365E+00  3.0632895843E-02  3.0032551954E-02  3.7430873551E-01
  5.3850000000E+03  1.8918592827E+00  8.1000761714E+00  3.0719425024E-02  3.0116192384E-02  3.7454902486E-01
  5.3900000000E+03  1.8939700706E+00  8.0956557297E+00  3.0806117979E-02  3.0199985185E-02  3.7478902644E-01
  5.3950000000E+03  1.8960812531E+00  8.0912417956E+00  3.0892974865E-02  3.0283930478E-02  3.7502874090E-01
  5.4000000000E+03  1.8981923889E+00  8.0868343537E+00  3.0979995841E-02  3.0368028271E-02  3.7526816885E-01
  5.4050000000E+03  1.9003039081E+00  8.0824333884E+00  3.1067181063E-02  3.0452278798E-02  3.7550731093E-01
  5.4100000000E+03  1.9024158206E+00  8.0780388840E+00  3.1154530690E-02  3.0536682182E-02  3.7574616774E-01
  5.4150000000E+03  1.9045281259E+00  8.0736508254E+00  3.1242044879E-02  3.0621238545E-02  3.7598473991E-01
  5.4200000000E+03  1.9066408238E+00  8.0693463047E+00  3.1329723788E-02  3.0705949125E-02  3.7622302806E-01
  5.4250000000E+03  1.9087539139E+00  8.0650581614E+00  3.1417567575E-02  3.0790813087E-02  3.7646103281E-01
  5.4300000000E+03  1.9108673961E+00  8.0607762440E+00  3.1505576396E-02  3.0875830408E-02  3.7669875475E-01
  5.4350000000E+03  1.9129812700E+00  8.0565005379E+00  3.1593750411E-02  3.0961001208E-02  3.7693619451E-01
  5.4400000000E+03  1.9150955354E+00  8.0522310284E+00  3.1682089775E-02  3.1046325610E-02  3.7717335269E-01
  5.4450000000E+03  1.9172101918E+00  8.0479677007E+00  3.1770594648E-02  3.1131803735E-02  3.7741022990E-01
  5.4500000000E+03  1.9194152896E+00  8.0437105402E+00  3.1859265187E-02  3.1217459526E-02  3.7764682675E-01
  5.4550000000E+03  1.9216214419E+00  8.0394595325E+00  3.1948101549E-02  3.1303269612E-02  3.7788314382E-01
  5.4600000000E+03  1.9238281053E+00  8.0352146629E+00  3.2037103893E-02  3.1389233974E-02  3.7811918174E-01
  5.4650000000E+03  1.9260352793E+00  8.0309759170E+00  3.2126272375E-02  3.1475352733E-02  3.7835494109E-01
  5.4700000000E+03  1.9282429637E+00  8.0267432804E+00  3.2215607154E-02  3.1561626011E-02  3.7859042247E-01
  5.4750000000E+03  1.9304511581E+00  8.0225167387E+00  3.2305108387E-02  3.1648053930E-02  3.7882562647E-01
  5.4800000000E+03  1.9326598620E+00  8.0182962776E+00  3.2394776233E-02  3.1734636612E-02  3.7906055369E-01
  5.4850000000E+03  1.9348690753E+00  8.0140818827E+00  3.2484610847E-02  3.1821374178E-02  3.7929520471E-01
  5.4900000000E+03  1.9370787975E+00  8.0098735399E+00  3.2574612390E-02  3.1908266749E-02  3.7952958013E-01
  5.4950000000E+03  1.9392890283E+00  8.0056712349E+00  3.2664781017E-02  3.1995314449E-02  3.7976368053E-01
  5.5000000000E+03  1.9415037241E+00  8.0014749537E+00  3.2755116887E-02  3.2082518477E-02  3.7999750649E-01
  5.5050000000E+03  1.9437192868E+00  7.9973224406E+00  3.2846046118E-02  3.2170287205E-02  3.8023105860E-01
  5.5100000000E+03  1.9459353630E+00  7.9932224747E+00  3.2937144877E-02  3.2258214023E-02  3.8046433744E-01
  5.5150000000E+03  1.9481519523E+00  7.9891283267E+00  3.3028413325E-02  3.2346298306E-02  3.8069734359E-01
  5.5200000000E+03  1.9503690544E+00  7.9850399829E+00  3.3119851625E-02  3.2434540177E-02  3.8093007779E-01
  5.5250000000E+03  1.9525866689E+00  7.9809574301E+00  3.3211459938E-02  3.2522939761E-02  3.8116254079E-01
  5.5300000000E+03  1.9548047955E+00  7.9768806546E+00  3.3303238426E-02  3.2611497182E-02  3.8139473328E-01
  5.5350000000E+03  1.9570234338E+00  7.9728096432E+00  3.3395187251E-02  3.2700212566E-02  3.8162665597E-01
  5.5400000000E+03  1.9592425835E+00  7.9687443825E+00  3.3487306575E-02  3.2789086035E-02  3.8185830955E-01
  5.5450000000E+03  1.9614622442E+00  7.9646848591E+00  3.3579596559E-02  3.2878117715E-02  3.8208969471E-01
  5.5500000000E+03  1.9636828259E+00  7.9606310599E+00  3.3672057366E-02  3.2967307846E-02  3.8232081215E-01
  5.5550000000E+03  1.9659040568E+00  7.9565829717E+00  3.3764689158E-02  3.3056656474E-02  3.8255166255E-01
  5.5600000000E+03  1.9681257985E+00  7.9525405811E+00  3.3857492095E-02  3.3146163687E-02  3.8278224661E-01
  5.5650000000E+03  1.9703480506E+00  7.9485038751E+00  3.3950466341E-02  3.3235829607E-02  3.8301256499E-01
  5.5700000000E+03  1.9725708128E+00  7.9444728407E+00  3.4043612056E-02  3.3325654359E-02  3.8324261840E-01
  5.5750000000E+03  1.9747940847E+00  7.9404474647E+00  3.4136929403E-02  3.3415638066E-02  3.8347240749E-01
  5.5800000000E+03  1.9770178660E+00  7.9364277342E+00  3.4230418544E-02  3.3505780851E-02  3.8370193295E-01
  5.5850000000E+03  1.9792421563E+00  7.9324136362E+00  3.4324079641E-02  3.3596082840E-02  3.8393119545E-01
  5.5900000000E+03  1.9814669554E+00  7.9284051577E+00  3.4417912855E-02  3.3686544154E-02  3.8416019566E-01
  5.5950000000E+03  1.9836922628E+00  7.9244616289E+00  3.4511918349E-02  3.3777165996E-02  3.8438893424E-01
  5.6000000000E+03  1.9859182966E+00  7.9205455295E+00  3.4606096284E-02  3.3867947887E-02  3.8461741186E-01
  5.6050000000E+03  1.9881450713E+00  7.9166348578E+00  3.4700446822E-02  3.3958889559E-02  3.8484562918E-01
  5.6100000000E+03  1.9903723540E+00  7.9127296013E+00  3.4794970126E-02  3.4049991068E-02  3.8507358686E-01
  5.6150000000E+03  1.9926001443E+00  7.9088297477E+00  3.4889666357E-02  3.4141252536E-02  3.8530128555E-01
  5.6200000000E+03  1.9948284419E+00  7.9049352849E+00  3.4984535677E-02  3.4232674087E-02  3.8552872591E-01
  5.6250000000E+03  1.9970572465E+00  7.9010462004E+00  3.5079578248E-02  3.4324255844E-02  3.8575590860E-01
  5.6300000000E+03  1.9992865577E+00  7.8971624822E+00  3.5174794232E-02  3.4415997931E-02  3.8598283425E-01
  5.6350000000E+03  2.0015163752E+00  7.8932841181E+00  3.5270183792E-02  3.4507900469E-02  3.8620950352E-01
  5.6400000000E+03  2.0037466986E+00  7.8894110960E+00  3.5365747088E-02  3.4599963582E-02  3.8643591705E-01
  5.6450000000E+03  2.0059775277E+00  7.8855434037E+00  3.5461484283E-02  3.4692187392E-02  3.8666207548E-01
  5.6500000000E+03  2.0082088511E+00  7.8816810292E+00  3.5557395540E-02  3.4784572019E-02  3.8688797945E-01
  5.6550000000E+03  2.0104406033E+00  7.8778239606E+00  3.5653481019E-02  3.4877117566E-02  3.8711362959E-01
  5.6600000000E+03  2.0126728600E+00  7.8739721858E+00  3.5749740884E-02  3.4969824179E-02  3.8733902654E-01
  5.6650000000E+03  2.0149056209E+00  7.8701256929E+00  3.5846175295E-02  3.5062691978E-02  3.8756417093E-01
  5.6700000000E+03  2.0171388857E+00  7.8662844701E+00  3.5942784416E-02  3.5155721088E-02  3.8778906338E-01
  5.6750000000E+03  2.0193726539E+00  7.8624485054E+00  3.6039568408E-02  3.5248911630E-02  3.8801370453E-01
  5.6800000000E+03  2.0216069254E+00  7.8586177870E+00  3.6136527433E-02  3.5342263726E-02  3.8823809500E-01
  5.6850000000E+03  2.0238416997E+00  7.8548492095E+00  3.6233661653E-02  3.5435778657E-02  3.8846223541E-01
  5.6900000000E+03  2.0260769765E+00  7.8511070786E+00  3.6330971231E-02  3.5529455836E-02  3.8868612638E-01
  5.6950000000E+03  2.0283127555E+00  7.8473700150E+00  3.6428456328E-02  3.5623294952E-02  3.8890976853E-01
  5.7000000000E+03  2.0305490364E+00  7.8436380075E+00  3.6526117106E-02  3.5717296127E-02  3.8913316246E-01
  5.7050000000E+03  2.0327862886E+00  7.8399110447E+00  3.6623953728E-02  3.5811459630E-02  3.8935630880E-01
  5.7100000000E+03  2.0350242721E+00  7.8361891155E+00  3.6721966355E-02  3.5905785509E-02  3.8957920815E-01
  5.7150000000E+03  2.0372627575E+00  7.8324722086E+00  3.6820155150E-02  3.6000273814E-02  3.8980186112E-01
  5.7200000000E+03  2.0395017443E+00  7.8287603129E+00  3.6918520275E-02  3.6094924668E-02  3.9002426831E-01
  5.7250000000E+03  2.0417412322E+00  7.8250534173E+00  3.7017061892E-02  3.6189738192E-02  3.9024643033E-01
  5.7300000000E+03  2.0439812210E+00  7.8213515106E+00  3.7115780163E-02  3.6284714507E-02  3.9046834778E-01
  5.7350000000E+03  2.0462217103E+00  7.8176545818E+00  3.7214675250E-02  3.6379853734E-02  3.9069002125E-01
  5.7400000000E+03  2.0484626998E+00  7.8139626199E+00  3.7313747315E-02  3.6475155996E-02  3.9091145135E-01
  5.7450000000E+03  2.0507041892E+00  7.8102756139E+00  3.7412996520E-02  3.6570621414E-02  3.9113263866E-01
  5.7500000000E+03  2.0529461781E+00  7.8065935527E+00  3.7512423028E-02  3.6666250107E-02  3.9135358377E-01
  5.7550000000E+03  2.0551887914E+00  7.8029164256E+00  3.7612027001E-02  3.6762042239E-02  3.9157428729E-01
  5.7600000000E+03  2.0574328229E+00  7.7992442216E+00  3.7711808601E-02  3.6857998185E-02  3.9179474979E-01
  5.7650000000E+03  2.0596773542E+00  7.7955769299E+00  3.7811767989E-02  3.6954117773E-02  3.9201497185E-01
  5.7700000000E+03  2.0619223852E+00  7.7919145396E+00  3.7911905329E-02  3.7050401123E-02  3.9223495407E-01
  5.7750000000E+03  2.0641679155E+00  7.7882897903E+00  3.8012220782E-02  3.7146849103E-02  3.9245469702E-01
  5.7800000000E+03  2.0664139448E+00  7.7847124052E+00  3.8112714510E-02  3.7243462068E-02  3.9267420128E-01
  5.7850000000E+03  2.0686604727E+00  7.7811397545E+00  3.8213386677E-02  3.7340239177E-02  3.9289346742E-01
  5.7900000000E+03  2.0709074989E+00  7.7775718277E+00  3.8314237443E-02  3.7437180549E-02  3.9311249603E-01
  5.7950000000E+03  2.0731550232E+00  7.7740086147E+00  3.8415266971E-02  3.7534286306E-02  3.9333128766E-01
  5.8000000000E+03  2.0754030451E+00  7.7704501050E+00  3.8516475424E-02  3.7631556567E-02  3.9354984290E-01
  5.8050000000E+03  2.0776515645E+00  7.7668962885E+00  3.8617862963E-02  3.7728991454E-02  3.9376816231E-01
  5.8100000000E+03  2.0798993451E+00  7.7633471549E+00  3.8719429751E-02  3.7826590677E-02  3.9398624645E-01
  5.8150000000E+03  2.0821462377E+00  7.7598026941E+00  3.8821175951E-02  3.7924354305E-02  3.9420409590E-01
  5.8200000000E+03  2.0843936232E+00  7.7562628958E+00  3.8923101723E-02  3.8022282912E-02  3.9442171120E-01
  5.8250000000E+03  2.0866415015E+00  7.7527277499E+00  3.9025207231E-02  3.8120376618E-02  3.9463909292E-01
  5.8300000000E+03  2.0888898722E+00  7.7491972464E+00  3.9127492637E-02  3.8218635544E-02  3.9485624162E-01
  5.8350000000E+03  2.0911387349E+00  7.7456713751E+00  3.9229958102E-02  3.8317059809E-02  3.9507315785E-01
  5.8400000000E+03  2.0933880894E+00  7.7421501261E+00  3.9332603790E-02  3.8415649534E-02  3.9528984216E-01
  5.8450000000E+03  2.0956379353E+00  7.7386334892E+00  3.9435429863E-02  3.8514404837E-02  3.9550629512E-01
  5.8500000000E+03  2.0978882723E+00  7.7351214546E+00  3.9538436483E-02  3.8613325839E-02  3.9572251725E-01
  5.8550000000E+03  2.1001391002E+00  7.7316140123E+00  3.9641623811E-02  3.8712412659E-02  3.9593850907E-01
  5.8600000000E+03  2.1023904186E+00  7.7281111524E+00  3.9744992011E-02  3.8811665416E-02  3.9615427121E-01
  5.8650000000E+03  2.1046431933E+00  7.7246128649E+00  3.9848541245E-02  3.8911084561E-02  3.9636980429E-01
  5.8700000000E+03  2.1068968278E+00  7.7211805827E+00  3.9952271675E-02  3.9010671578E-02  3.9658510894E-01
  5.8750000000E+03  2.1091509535E+00  7.7177637650E+00  4.0056183464E-02  3.9110425194E-02  3.9680018579E-01
  5.8800000000E+03  2.1114055702E+00  7.7143513641E+00  4.0160276773E-02  3.9210345247E-02  3.9701503547E-01
  5.8850000000E+03  2.1136606776E+00  7.7109433705E+00  4.0264551765E-02  3.9310431855E-02  3.9722965859E-01
  5.8900000000E+03  2.1159162753E+00  7.7075397748E+00  4.0369008603E-02  3.9410685139E-02  3.9744405578E-01
  5.8950000000E+03  2.1181723631E+00  7.7041405676E+00  4.0473647448E-02  3.9511105217E-02  3.9765822765E-01
  5.9000000000E+03  2.1204289406E+00  7.7007457396E+00  4.0578468464E-02  3.9611692208E-02  3.9787217483E-01
  5.9050000000E+03  2.1226860075E+00  7.6973552813E+00  4.0683471812E-02  3.9712446231E-02  3.9808589791E-01
  5.9100000000E+03  2.1249435636E+00  7.6939691835E+00  4.0788657655E-02  3.9813367404E-02  3.9829939752E-01
  5.9150000000E+03  2.1272016084E+00  7.6905874369E+00  4.0894026155E-02  3.9914455847E-02  3.9851267425E-01
  5.9200000000E+03  2.1294603885E+00  7.6872100322E+00  4.0999577474E-02  4.0015711764E-02  3.9872572872E-01
  5.9250000000E+03  2.1317196920E+00  7.6838369602E+00  4.1105311776E-02  4.0117135201E-02  3.9893856153E-01
  5.9300000000E+03  2.1339794837E+00  7.6804682117E+00  4.1211229222E-02  4.0218726264E-02  3.9915117328E-01
  5.9350000000E+03  2.1362397634E+00  7.6771037774E+00  4.1317329975E-02  4.0320485070E-02  3.9936356455E-01
  5.9400000000E+03  2.1385005307E+00  7.6737436483E+00  4.1423614197E-02  4.0422411738E-02  3.9957573596E-01
  5.9450000000E+03  2.1407617853E+00  7.6703878152E+00  4.1530082051E-02  4.0524506386E-02  3.9978768810E-01
  5.9500000000E+03  2.1430235270E+00  7.6670362690E+00  4.1636733698E-02  4.0626769133E-02  3.9999942154E-01
  5.9550000000E+03  2.1452857554E+00  7.6636890007E+00  4.1743569303E-02  4.0729200095E-02  4.0021093689E-01
  5.9600000000E+03  2.1475484702E+00  7.6603460011E+00  4.1850589026E-02  4.0831799392E-02  4.0042223473E-01
  5.9650000000E+03  2.1498116711E+00  7.6570743127E+00  4.1957793030E-02  4.0934569057E-02  4.0063331565E-01
  5.9700000000E+03  2.1520753579E+00  7.6538094316E+00  4.2065181479E-02  4.1037507387E-02  4.0084418021E-01
  5.9750000000E+03  2.1543398469E+00  7.6505486740E+00  4.2172754533E-02  4.1140614540E-02  4.0105482902E-01
  5.9800000000E+03  2.1566048455E+00  7.6472920314E+00  4.2280512357E-02  4.1243890528E-02  4.0126526263E-01
  5.9850000000E+03  2.1588703294E+00  7.6440394952E+00  4.2388455111E-02  4.1347335460E-02  4.0147548163E-01
  5.9900000000E+03  2.1611362983E+00  7.6407910567E+00  4.2496582959E-02  4.1450949452E-02  4.0168548658E-01
  5.9950000000E+03  2.1634027519E+00  7.6375467073E+00  4.2604896064E-02  4.1554732623E-02  4.0189527807E-01
  6.0000000000E+03  2.1656696900E+00  7.6343064386E+00  4.2713394587E-02  4.1658685090E-02  4.0210485665E-01
  6.0050000000E+03  2.1679371122E+00  7.6310702419E+00  4.2822785676E-02  4.1763479409E-02  4.0231422290E-01
  6.0100000000E+03  2.1702050182E+00  7.6278381089E+00  4.2932365525E-02  4.1868446006E-02  4.0252337737E-01
  6.0150000000E+03  2.1724734078E+00  7.6246100309E+00  4.3042134302E-02  4.1973585002E-02  4.0273232064E-01
  6.0200000000E+03  2.1747422806E+00  7.6213859996E+00  4.3152092177E-02  4.2078896519E-02  4.0294105325E-01
  6.0250000000E+03  2.1770116363E+00  7.6181660065E+00  4.3262239316E-02  4.2184380677E-02  4.0314957576E-01
  6.0300000000E+03  2.1792900426E+00  7.6149500432E+00  4.3372575889E-02  4.2290040825E-02  4.0335788874E-01
  6.0350000000E+03  2.1815701110E+00  7.6117381014E+00  4.3483102064E-02  4.2395874321E-02  4.0356599272E-01
  6.0400000000E+03  2.1838506738E+00  7.6085301727E+00  4.3593818009E-02  4.2501880849E-02  4.0377388828E-01
  6.0450000000E+03  2.1861317305E+00  7.6053262487E+00  4.3704723892E-02  4.2608060530E-02  4.0398157594E-01
  6.0500000000E+03  2.1884132809E+00  7.6021263212E+00  4.3815819882E-02  4.2714413484E-02  4.0418905627E-01
  6.0550000000E+03  2.1906953247E+00  7.5989303818E+00  4.3927106147E-02  4.2820939833E-02  4.0439632980E-01
  6.0600000000E+03  2.1929778615E+00  7.5957900276E+00  4.4038582856E-02  4.2927641346E-02  4.0460339708E-01
  6.0650000000E+03  2.1952608912E+00  7.5926688336E+00  4.4150250176E-02  4.3034517002E-02  4.0481025864E-01
  6.0700000000E+03  2.1975444133E+00  7.5895514926E+00  4.4262108277E-02  4.3141566437E-02  4.0501691504E-01
  6.0750000000E+03  2.1998284277E+00  7.5864379966E+00  4.4374157326E-02  4.3248789771E-02  4.0522336679E-01
  6.0800000000E+03  2.2021129339E+00  7.5833283378E+00  4.4486397492E-02  4.3356187124E-02  4.0542961444E-01
  6.0850000000E+03  2.2044494693E+00  7.5802225084E+00  4.4598828944E-02  4.3463778653E-02  4.0563565853E-01
  6.0900000000E+03  2.2068056363E+00  7.5771205004E+00  4.4711451849E-02  4.3571552019E-02  4.0584149957E-01
  6.0950000000E+03  2.2091623848E+00  7.5740223060E+00  4.4824266377E-02  4.3679499958E-02  4.0604713810E-01
  6.1000000000E+03  2.2115197146E+00  7.5709279174E+00  4.4937272695E-02  4.3787622593E-02  4.0625257464E-01
  6.1050000000E+03  2.2138776253E+00  7.5678373268E+00  4.5050470972E-02  4.3895920042E-02  4.0645780973E-01
  6.1100000000E+03  2.2162361165E+00  7.5647505264E+00  4.5163861377E-02  4.4004392429E-02  4.0666284388E-01
  6.1150000000E+03  2.2185951880E+00  7.5616675086E+00  4.5277444078E-02  4.4113039873E-02  4.0686767761E-01
  6.1200000000E+03  2.2209548394E+00  7.5585882655E+00  4.5391219244E-02  4.4221862494E-02  4.0707231144E-01
  6.1250000000E+03  2.2233150703E+00  7.5555127896E+00  4.5505187042E-02  4.4330860414E-02  4.0727674589E-01
  6.1300000000E+03  2.2256758805E+00  7.5524410730E+00  4.5619347643E-02  4.4440033754E-02  4.0748098147E-01
  6.1350000000E+03  2.2280372696E+00  7.5493731082E+00  4.5733701213E-02  4.4549382632E-02  4.0768501870E-01
  6.1400000000E+03  2.2303994553E+00  7.5463088874E+00  4.5848247921E-02  4.4658907258E-02  4.0788885809E-01
  6.1450000000E+03  2.2327624598E+00  7.5432484032E+00  4.5962987937E-02  4.4768607761E-02  4.0809250014E-01
  6.1500000000E+03  2.2351260427E+00  7.5401916479E+00  4.6077921428E-02  4.4878484166E-02  4.0829594537E-01
  6.1550000000E+03  2.2374902039E+00  7.5371560495E+00  4.6193048564E-02  4.4988537213E-02  4.0849919427E-01
  6.1600000000E+03  2.2398549429E+00  7.5341706840E+00  4.6308369512E-02  4.5098768075E-02  4.0870224736E-01
  6.1650000000E+03  2.2422202595E+00  7.5311889218E+00  4.6423884441E-02  4.5209175221E-02  4.0890510514E-01
  6.1700000000E+03  2.2445861532E+00  7.5282107556E+00  4.6539593520E-02  4.5319758771E-02  4.0910776829E-01
  6.1750000000E+03  2.2469526239E+00  7.5252361780E+00  4.6655496918E-02  4.5430518845E-02  4.0931023748E-01
  6.1800000000E+03  2.2493196710E+00  7.5222651820E+00  4.6771594802E-02  4.5541455561E-02  4.0951251326E-01
  6.1850000000E+03  2.2516872944E+00  7.5192977602E+00  4.6887887342E-02  4.5652569041E-02  4.0971459619E-01
  6.1900000000E+03  2.2540554937E+00  7.5163339056E+00  4.7004374707E-02  4.5763859403E-02  4.0991648682E-01
  6.1950000000E+03  2.2564242586E+00  7.5133736108E+00  4.7121057064E-02  4.5875326763E-02  4.1011818570E-01
  6.2000000000E+03  2.2587935235E+00  7.5104168689E+00  4.7237934583E-02  4.5986971213E-02  4.1031969337E-01
  6.2050000000E+03  2.2611633632E+00  7.5074636727E+00  4.7355007431E-02  4.6098792903E-02  4.1052101040E-01
  6.2100000000E+03  2.2635337774E+00  7.5045140150E+00  4.7472275779E-02  4.6210791953E-02  4.1072213732E-01
  6.2150000000E+03  2.2659047657E+00  7.5015678888E+00  4.7589739794E-02  4.6322968482E-02  4.1092307467E-01
  6.2200000000E+03  2.2682763279E+00  7.4986252870E+00  4.7707399645E-02  4.6435322608E-02  4.1112382299E-01
  6.2250000000E+03  2.2706484637E+00  7.4956862026E+00  4.7825255501E-02  4.6547854451E-02  4.1132438283E-01
  6.2300000000E+03  2.2730211726E+00  7.4927506285E+00  4.7943307530E-02  4.6660564129E-02  4.1152475472E-01
  6.2350000000E+03  2.2753944544E+00  7.4898185578E+00  4.8061555901E-02  4.6773451762E-02  4.1172493919E-01
  6.2400000000E+03  2.2777683087E+00  7.4868899834E+00  4.8180000784E-02  4.6886517467E-02  4.1192493678E-01
  6.2450000000E+03  2.2801427353E+00  7.4839648984E+00  4.8298642345E-02  4.6999761364E-02  4.1212474801E-01
  6.2500000000E+03  2.2825177338E+00  7.4810432959E+00  4.8417480756E-02  4.7113183571E-02  4.1232437342E-01
  6.2550000000E+03  2.2848934242E+00  7.4781532865E+00  4.8536516183E-02  4.7226785378E-02  4.1252381353E-01
  6.2600000000E+03  2.2872697496E+00  7.4752997758E+00  4.8655748796E-02  4.7340567097E-02  4.1272306886E-01
  6.2650000000E+03  2.2896466462E+00  7.4724496309E+00  4.8775178763E-02  4.7454527505E-02  4.1292213993E-01
  6.2700000000E+03  2.2920241137E+00  7.4696028451E+00  4.8894806254E-02  4.7568666721E-02  4.1312102728E-01
  6.2750000000E+03  2.2944021517E+00  7.4667594118E+00  4.9014631437E-02  4.7682984861E-02  4.1331973140E-01
  6.2800000000E+03  2.2967807600E+00  7.4639193245E+00  4.9134654481E-02  4.7797482045E-02  4.1351825283E-01
  6.2850000000E+03  2.2991599381E+00  7.4610825764E+00  4.9254875554E-02  4.7912158390E-02  4.1371659207E-01
  6.2900000000E+03  2.3015396859E+00  7.4582491610E+00  4.9375294826E-02  4.8027014014E-02  4.1391474964E-01
  6.2950000000E+03  2.3039200030E+00  7.4554190718E+00  4.9495912465E-02  4.8142049035E-02  4.1411272605E-01
  6.3000000000E+03  2.3063008890E+00  7.4525923022E+00  4.9616728641E-02  4.8257263571E-02  4.1431052180E-01
  6.3050000000E+03  2.3086823437E+00  7.4497688457E+00  4.9737743521E-02  4.8372657739E-02  4.1450813741E-01
  6.3100000000E+03  2.3110642632E+00  7.4469486958E+00  4.9858957275E-02  4.8488231612E-02  4.1470557337E-01
  6.3150000000E+03  2.3134456500E+00  7.4441318459E+00  4.9980370071E-02  4.8603984865E-02  4.1490283020E-01
  6.3200000000E+03  2.3158276029E+00  7.4413182898E+00  5.0101982079E-02  4.8719918099E-02  4.1509990838E-01
  6.3250000000E+03  2.3182101217E+00  7.4385080207E+00  5.0223793468E-02  4.8836031432E-02  4.1529680843E-01
  6.3300000000E+03  2.3205932061E+00  7.4357010325E+00  5.0345804405E-02  4.8952324979E-02  4.1549353083E-01
  6.3350000000E+03  2.3229768557E+00  7.4328973185E+00  5.0468015061E-02  4.9068798859E-02  4.1569007608E-01
  6.3400000000E+03  2.3253610702E+00  7.4300968725E+00  5.0590425604E-02  4.9185453188E-02  4.1588644468E-01
  6.3450000000E+03  2.3277458493E+00  7.4272996880E+00  5.0713036203E-02  4.9302288083E-02  4.1608263712E-01
  6.3500000000E+03  2.3301311928E+00  7.4245057587E+00  5.0835847026E-02  4.9419303661E-02  4.1627865389E-01
