#[MATERIAL DEFINITION FOR MC-GPU: interaction mean free path and sampling data from PENELOPE 2018]
#[MATERIAL NAME]
# polyufoam                                                     
#[NOMINAL DENSITY (g/cm^3)]
#   0.02100000
#[NUMBER OF DATA VALUES]
#  23002
#[MEAN FREE PATHS (cm) (ie, average distance between interactions)]
#[Energy (eV)     | Rayleigh        | Compton         | Photoelectric   | TOTAL (+pair prod) (cm) | Rayleigh: max cumul prob F^2]
  5.0000000000E+03  1.0513492736E+02  4.1158875747E+02  1.7696779663E+00  1.7330549242E+00  3.4064851917E-01
  5.0050000000E+03  1.0525895803E+02  4.1139444482E+02  1.7751212678E+00  1.7383053279E+00  3.4090078853E-01
  5.0100000000E+03  1.0538301096E+02  4.1120041778E+02  1.7805758493E+00  1.7435661774E+00  3.4115283035E-01
  5.0150000000E+03  1.0550727664E+02  4.1100667567E+02  1.7860417228E+00  1.7488375345E+00  3.4140464531E-01
  5.0200000000E+03  1.0563167870E+02  4.1081321777E+02  1.7915189004E+00  1.7541193877E+00  3.4165623407E-01
  5.0250000000E+03  1.0575610339E+02  4.1062004338E+02  1.7970073941E+00  1.7594117153E+00  3.4190759732E-01
  5.0300000000E+03  1.0588055067E+02  4.1042715181E+02  1.8025072161E+00  1.7647145264E+00  3.4215873572E-01
  5.0350000000E+03  1.0600502053E+02  4.1023454236E+02  1.8080183784E+00  1.7700278302E+00  3.4240964993E-01
  5.0400000000E+03  1.0612951295E+02  4.1004221434E+02  1.8135408931E+00  1.7753516361E+00  3.4266034062E-01
  5.0450000000E+03  1.0625402791E+02  4.0985016707E+02  1.8190747723E+00  1.7806859531E+00  3.4291080846E-01
  5.0500000000E+03  1.0637856540E+02  4.0965839985E+02  1.8246200280E+00  1.7860307904E+00  3.4316105410E-01
  5.0550000000E+03  1.0650312540E+02  4.0946691199E+02  1.8301766724E+00  1.7913861573E+00  3.4341107819E-01
  5.0600000000E+03  1.0662775190E+02  4.0927570283E+02  1.8357447175E+00  1.7967520755E+00  3.4366088141E-01
  5.0650000000E+03  1.0675248274E+02  4.0908477167E+02  1.8413241754E+00  1.8021285649E+00  3.4391046439E-01
  5.0700000000E+03  1.0687723619E+02  4.0889411783E+02  1.8469150582E+00  1.8075156118E+00  3.4415982778E-01
  5.0750000000E+03  1.0700201225E+02  4.0870374065E+02  1.8525173780E+00  1.8129132253E+00  3.4440897225E-01
  5.0800000000E+03  1.0712681090E+02  4.0851363944E+02  1.8581311468E+00  1.8183214144E+00  3.4465789843E-01
  5.0850000000E+03  1.0725163211E+02  4.0832635419E+02  1.8637563768E+00  1.8237402391E+00  3.4490660696E-01
  5.0900000000E+03  1.0737647588E+02  4.0813958512E+02  1.8693930800E+00  1.8291696634E+00  3.4515509849E-01
  5.0950000000E+03  1.0750134217E+02  4.0795308472E+02  1.8750412685E+00  1.8346096916E+00  3.4540337366E-01
  5.1000000000E+03  1.0762623098E+02  4.0776685236E+02  1.8807009544E+00  1.8400603327E+00  3.4565143310E-01
  5.1050000000E+03  1.0775114228E+02  4.0758088737E+02  1.8863721498E+00  1.8455215959E+00  3.4589927745E-01
  5.1100000000E+03  1.0787600513E+02  4.0739518913E+02  1.8920548668E+00  1.8509934694E+00  3.4614690734E-01
  5.1150000000E+03  1.0800088963E+02  4.0720975697E+02  1.8977491175E+00  1.8564759829E+00  3.4639432341E-01
  5.1200000000E+03  1.0812579647E+02  4.0702459027E+02  1.9034549140E+00  1.8619691457E+00  3.4664152628E-01
  5.1250000000E+03  1.0825072563E+02  4.0683968839E+02  1.9091722683E+00  1.8674729669E+00  3.4688851658E-01
  5.1300000000E+03  1.0837567711E+02  4.0665505068E+02  1.9149011926E+00  1.8729874555E+00  3.4713529493E-01
  5.1350000000E+03  1.0850065088E+02  4.0647067652E+02  1.9206416989E+00  1.8785126208E+00  3.4738186195E-01
  5.1400000000E+03  1.0862564693E+02  4.0628656527E+02  1.9263937994E+00  1.8840484717E+00  3.4762821827E-01
  5.1450000000E+03  1.0875066523E+02  4.0610271630E+02  1.9321575061E+00  1.8895950173E+00  3.4787436450E-01
  5.1500000000E+03  1.0887570577E+02  4.0591912898E+02  1.9379328311E+00  1.8951522668E+00  3.4812030127E-01
  5.1550000000E+03  1.0900077987E+02  4.0573580269E+02  1.9437197866E+00  1.9007202326E+00  3.4836602917E-01
  5.1600000000E+03  1.0912588576E+02  4.0555273680E+02  1.9495183846E+00  1.9062989233E+00  3.4861154888E-01
  5.1650000000E+03  1.0925101386E+02  4.0537142296E+02  1.9553286372E+00  1.9118883783E+00  3.4885686123E-01
  5.1700000000E+03  1.0937616417E+02  4.0519156630E+02  1.9611505566E+00  1.9174886006E+00  3.4910196691E-01
  5.1750000000E+03  1.0950133665E+02  4.0501196319E+02  1.9669841548E+00  1.9230995728E+00  3.4934686656E-01
  5.1800000000E+03  1.0962653129E+02  4.0483261302E+02  1.9728294440E+00  1.9287213039E+00  3.4959156082E-01
  5.1850000000E+03  1.0975174808E+02  4.0465351519E+02  1.9786864361E+00  1.9343538029E+00  3.4983605033E-01
  5.1900000000E+03  1.0987698699E+02  4.0447466910E+02  1.9845551435E+00  1.9399970788E+00  3.5008033573E-01
  5.1950000000E+03  1.1000224802E+02  4.0429607415E+02  1.9904355780E+00  1.9456511407E+00  3.5032441765E-01
  5.2000000000E+03  1.1012753222E+02  4.0411772977E+02  1.9963277519E+00  1.9513159980E+00  3.5056829672E-01
  5.2050000000E+03  1.1025297409E+02  4.0393963534E+02  2.0022316773E+00  1.9569917019E+00  3.5081197357E-01
  5.2100000000E+03  1.1037843819E+02  4.0376179028E+02  2.0081473663E+00  1.9626782192E+00  3.5105544884E-01
  5.2150000000E+03  1.1050392450E+02  4.0358419401E+02  2.0140748309E+00  1.9683755589E+00  3.5129872313E-01
  5.2200000000E+03  1.1062943302E+02  4.0340684593E+02  2.0200140832E+00  1.9740837299E+00  3.5154179709E-01
  5.2250000000E+03  1.1075496373E+02  4.0322974547E+02  2.0259651355E+00  1.9798027411E+00  3.5178467132E-01
  5.2300000000E+03  1.1088051660E+02  4.0305289204E+02  2.0319279998E+00  1.9855326017E+00  3.5202734646E-01
  5.2350000000E+03  1.1100609162E+02  4.0287628505E+02  2.0379026882E+00  1.9912733206E+00  3.5226982310E-01
  5.2400000000E+03  1.1113168878E+02  4.0269992394E+02  2.0438892127E+00  1.9970249066E+00  3.5251210188E-01
  5.2450000000E+03  1.1125730805E+02  4.0252380813E+02  2.0498875857E+00  2.0027873688E+00  3.5275418340E-01
  5.2500000000E+03  1.1138322151E+02  4.0235036483E+02  2.0558978190E+00  2.0085608652E+00  3.5299606827E-01
  5.2550000000E+03  1.1150959052E+02  4.0217733572E+02  2.0619199250E+00  2.0143454027E+00  3.5323775710E-01
  5.2600000000E+03  1.1163598252E+02  4.0200454546E+02  2.0679539156E+00  2.0201408459E+00  3.5347925050E-01
  5.2650000000E+03  1.1176239749E+02  4.0183199351E+02  2.0739998030E+00  2.0259472037E+00  3.5372054907E-01
  5.2700000000E+03  1.1188883540E+02  4.0165967931E+02  2.0800575993E+00  2.0317644850E+00  3.5396165341E-01
  5.2750000000E+03  1.1201529625E+02  4.0148760230E+02  2.0861273166E+00  2.0375926988E+00  3.5420256412E-01
  5.2800000000E+03  1.1214178002E+02  4.0131576194E+02  2.0922089670E+00  2.0434318539E+00  3.5444328181E-01
  5.2850000000E+03  1.1226828669E+02  4.0114415767E+02  2.0983025627E+00  2.0492819594E+00  3.5468380707E-01
  5.2900000000E+03  1.1239481623E+02  4.0097278895E+02  2.1044081158E+00  2.0551430240E+00  3.5492414048E-01
  5.2950000000E+03  1.1252136864E+02  4.0080165523E+02  2.1105256384E+00  2.0610150568E+00  3.5516428266E-01
  5.3000000000E+03  1.1264797664E+02  4.0063075597E+02  2.1166551426E+00  2.0668980776E+00  3.5540423417E-01
  5.3050000000E+03  1.1277462336E+02  4.0046009063E+02  2.1227966406E+00  2.0727920897E+00  3.5564399562E-01
  5.3100000000E+03  1.1290129295E+02  4.0028965867E+02  2.1289501444E+00  2.0786970967E+00  3.5588356759E-01
  5.3150000000E+03  1.1302798540E+02  4.0011945954E+02  2.1351156662E+00  2.0846131076E+00  3.5612295066E-01
  5.3200000000E+03  1.1315470069E+02  3.9994949272E+02  2.1412932181E+00  2.0905401310E+00  3.5636214542E-01
  5.3250000000E+03  1.1328143880E+02  3.9977975766E+02  2.1474828123E+00  2.0964781760E+00  3.5660115244E-01
  5.3300000000E+03  1.1340819972E+02  3.9961036546E+02  2.1536844608E+00  2.1024272544E+00  3.5683997231E-01
  5.3350000000E+03  1.1353498342E+02  3.9944360659E+02  2.1598981758E+00  2.1083874390E+00  3.5707860560E-01
  5.3400000000E+03  1.1366178990E+02  3.9927707342E+02  2.1661239694E+00  2.1143586724E+00  3.5731705289E-01
  5.3450000000E+03  1.1378861913E+02  3.9911076545E+02  2.1723618538E+00  2.1203409636E+00  3.5755531475E-01
  5.3500000000E+03  1.1391535559E+02  3.9894468215E+02  2.1786118411E+00  2.1263342809E+00  3.5779339175E-01
  5.3550000000E+03  1.1404209765E+02  3.9877882301E+02  2.1848739433E+00  2.1323386674E+00  3.5803128446E-01
  5.3600000000E+03  1.1416886225E+02  3.9861318752E+02  2.1911481727E+00  2.1383541376E+00  3.5826899345E-01
  5.3650000000E+03  1.1429564936E+02  3.9844777517E+02  2.1974345413E+00  2.1443807004E+00  3.5850651928E-01
  5.3700000000E+03  1.1442245896E+02  3.9828258546E+02  2.2037330614E+00  2.1504183646E+00  3.5874386252E-01
  5.3750000000E+03  1.1454929105E+02  3.9811761787E+02  2.2100437450E+00  2.1564671390E+00  3.5898102373E-01
  5.3800000000E+03  1.1467614560E+02  3.9795287190E+02  2.2163666042E+00  2.1625270323E+00  3.5921800348E-01
  5.3850000000E+03  1.1480302259E+02  3.9778834705E+02  2.2227016513E+00  2.1685980534E+00  3.5945480230E-01
  5.3900000000E+03  1.1492992202E+02  3.9762404281E+02  2.2290488983E+00  2.1746802110E+00  3.5969142078E-01
  5.3950000000E+03  1.1505684385E+02  3.9745995869E+02  2.2354083573E+00  2.1807735139E+00  3.5992785946E-01
  5.4000000000E+03  1.1518390141E+02  3.9729609419E+02  2.2417800406E+00  2.1868780118E+00  3.6016411889E-01
  5.4050000000E+03  1.1531098404E+02  3.9713244881E+02  2.2481639602E+00  2.1929936736E+00  3.6040019962E-01
  5.4100000000E+03  1.1543808918E+02  3.9696902205E+02  2.2545601283E+00  2.1991205074E+00  3.6063610221E-01
  5.4150000000E+03  1.1556521681E+02  3.9680581342E+02  2.2609685570E+00  2.2052585217E+00  3.6087182720E-01
  5.4200000000E+03  1.1569236692E+02  3.9664497019E+02  2.2673892585E+00  2.2114077923E+00  3.6110737515E-01
  5.4250000000E+03  1.1581953949E+02  3.9648462220E+02  2.2738222449E+00  2.2175682704E+00  3.6134274659E-01
  5.4300000000E+03  1.1594673450E+02  3.9632448665E+02  2.2802675284E+00  2.2237399562E+00  3.6157794206E-01
  5.4350000000E+03  1.1607395193E+02  3.9616456308E+02  2.2867251210E+00  2.2299228584E+00  3.6181296212E-01
  5.4400000000E+03  1.1620119178E+02  3.9600485101E+02  2.2931950350E+00  2.2361169856E+00  3.6204780729E-01
  5.4450000000E+03  1.1632845402E+02  3.9584534996E+02  2.2996772824E+00  2.2423223466E+00  3.6228247812E-01
  5.4500000000E+03  1.1645792532E+02  3.9568605947E+02  2.3061718755E+00  2.2485397653E+00  3.6251697514E-01
  5.4550000000E+03  1.1658743500E+02  3.9552697906E+02  2.3126788264E+00  2.2547684466E+00  3.6275129890E-01
  5.4600000000E+03  1.1671696986E+02  3.9536810826E+02  2.3191981471E+00  2.2610083943E+00  3.6298544991E-01
  5.4650000000E+03  1.1684652987E+02  3.9520944661E+02  2.3257298499E+00  2.2672596171E+00  3.6321942871E-01
  5.4700000000E+03  1.1697611502E+02  3.9505099364E+02  2.3322739470E+00  2.2735221237E+00  3.6345323584E-01
  5.4750000000E+03  1.1710572528E+02  3.9489274888E+02  2.3388304503E+00  2.2797959229E+00  3.6368687182E-01
  5.4800000000E+03  1.1723536065E+02  3.9473471187E+02  2.3453993722E+00  2.2860810232E+00  3.6392033717E-01
  5.4850000000E+03  1.1736502110E+02  3.9457688215E+02  2.3519807248E+00  2.2923774333E+00  3.6415363243E-01
  5.4900000000E+03  1.1749470662E+02  3.9441925926E+02  2.3585745202E+00  2.2986851620E+00  3.6438675811E-01
  5.4950000000E+03  1.1762441718E+02  3.9426184274E+02  2.3651807705E+00  2.3050042179E+00  3.6461971475E-01
  5.5000000000E+03  1.1775432513E+02  3.9410463213E+02  2.3717994879E+00  2.3113346760E+00  3.6485250285E-01
  5.5050000000E+03  1.1788427373E+02  3.9394867602E+02  2.3784616502E+00  2.3177059252E+00  3.6508512294E-01
  5.5100000000E+03  1.1801424756E+02  3.9379421867E+02  2.3851364490E+00  2.3240887053E+00  3.6531757553E-01
  5.5150000000E+03  1.1814424661E+02  3.9363996189E+02  2.3918238970E+00  2.3304829806E+00  3.6554986115E-01
  5.5200000000E+03  1.1827427086E+02  3.9348590524E+02  2.3985240064E+00  2.3368887600E+00  3.6578198031E-01
  5.5250000000E+03  1.1840432030E+02  3.9333204829E+02  2.4052367899E+00  2.3433060523E+00  3.6601393358E-01
  5.5300000000E+03  1.1853439490E+02  3.9317839059E+02  2.4119622598E+00  2.3497348663E+00  3.6624572152E-01
  5.5350000000E+03  1.1866449464E+02  3.9302493170E+02  2.4187004286E+00  2.3561752110E+00  3.6647734466E-01
  5.5400000000E+03  1.1879461951E+02  3.9287167119E+02  2.4254513089E+00  2.3626270952E+00  3.6670880357E-01
  5.5450000000E+03  1.1892476949E+02  3.9271860862E+02  2.4322149129E+00  2.3690905276E+00  3.6694009880E-01
  5.5500000000E+03  1.1905496621E+02  3.9256574356E+02  2.4389912533E+00  2.3755655258E+00  3.6717123088E-01
  5.5550000000E+03  1.1918519533E+02  3.9241307558E+02  2.4457803425E+00  2.3820520929E+00  3.6740220037E-01
  5.5600000000E+03  1.1931544954E+02  3.9226060424E+02  2.4525821930E+00  2.3885502349E+00  3.6763300782E-01
  5.5650000000E+03  1.1944572882E+02  3.9210832912E+02  2.4593968172E+00  2.3950599605E+00  3.6786365376E-01
  5.5700000000E+03  1.1957603317E+02  3.9195624978E+02  2.4662242276E+00  2.4015812785E+00  3.6809413874E-01
  5.5750000000E+03  1.1970636255E+02  3.9180436581E+02  2.4730644367E+00  2.4081141979E+00  3.6832446329E-01
  5.5800000000E+03  1.1983671696E+02  3.9165267676E+02  2.4799174569E+00  2.4146587272E+00  3.6855462795E-01
  5.5850000000E+03  1.1996709638E+02  3.9150118223E+02  2.4867833007E+00  2.4212148753E+00  3.6878463326E-01
  5.5900000000E+03  1.2009750079E+02  3.9134988179E+02  2.4936619806E+00  2.4277826510E+00  3.6901447976E-01
  5.5950000000E+03  1.2022793016E+02  3.9120041896E+02  2.5005535091E+00  2.4343621267E+00  3.6924416797E-01
  5.6000000000E+03  1.2035835686E+02  3.9105175473E+02  2.5074578987E+00  2.4409532605E+00  3.6947369842E-01
  5.6050000000E+03  1.2048877897E+02  3.9090327960E+02  2.5143751618E+00  2.4475560368E+00  3.6970307166E-01
  5.6100000000E+03  1.2061922592E+02  3.9075499316E+02  2.5213053109E+00  2.4541704765E+00  3.6993228819E-01
  5.6150000000E+03  1.2074969770E+02  3.9060689499E+02  2.5282483584E+00  2.4607965882E+00  3.7016134856E-01
  5.6200000000E+03  1.2088019430E+02  3.9045898470E+02  2.5352043170E+00  2.4674343807E+00  3.7039025329E-01
  5.6250000000E+03  1.2101071569E+02  3.9031126188E+02  2.5421731989E+00  2.4740838627E+00  3.7061900289E-01
  5.6300000000E+03  1.2114126185E+02  3.9016372612E+02  2.5491550168E+00  2.4807450430E+00  3.7084759789E-01
  5.6350000000E+03  1.2127183278E+02  3.9001637703E+02  2.5561497832E+00  2.4874179302E+00  3.7107603882E-01
  5.6400000000E+03  1.2140242844E+02  3.8986921419E+02  2.5631575104E+00  2.4941025330E+00  3.7130432618E-01
  5.6450000000E+03  1.2153304883E+02  3.8972223722E+02  2.5701782110E+00  2.5007988602E+00  3.7153246049E-01
  5.6500000000E+03  1.2166370329E+02  3.8957544570E+02  2.5772118975E+00  2.5075069244E+00  3.7176044228E-01
  5.6550000000E+03  1.2179444742E+02  3.8942883925E+02  2.5842585823E+00  2.5142267580E+00  3.7198827206E-01
  5.6600000000E+03  1.2192521633E+02  3.8928241747E+02  2.5913182780E+00  2.5209583422E+00  3.7221595033E-01
  5.6650000000E+03  1.2205600998E+02  3.8913617996E+02  2.5983909970E+00  2.5277016856E+00  3.7244347761E-01
  5.6700000000E+03  1.2218682836E+02  3.8899012632E+02  2.6054767518E+00  2.5344567970E+00  3.7267085441E-01
  5.6750000000E+03  1.2231767146E+02  3.8884425617E+02  2.6125755550E+00  2.5412236850E+00  3.7289808124E-01
  5.6800000000E+03  1.2244853926E+02  3.8869856911E+02  2.6196874189E+00  2.5480023581E+00  3.7312515860E-01
  5.6850000000E+03  1.2257943173E+02  3.8855463612E+02  2.6268123562E+00  2.5547928931E+00  3.7335208699E-01
  5.6900000000E+03  1.2271034887E+02  3.8841147191E+02  2.6339503792E+00  2.5615952568E+00  3.7357886693E-01
  5.6950000000E+03  1.2284129066E+02  3.8826848612E+02  2.6411015005E+00  2.5684094326E+00  3.7380549891E-01
  5.7000000000E+03  1.2297225708E+02  3.8812567839E+02  2.6482657326E+00  2.5752354292E+00  3.7403198344E-01
  5.7050000000E+03  1.2310322339E+02  3.8798304833E+02  2.6554430880E+00  2.5820732441E+00  3.7425832101E-01
  5.7100000000E+03  1.2323420219E+02  3.8784059556E+02  2.6626335792E+00  2.5889228915E+00  3.7448451213E-01
  5.7150000000E+03  1.2336520553E+02  3.8769831972E+02  2.6698372186E+00  2.5957843853E+00  3.7471055728E-01
  5.7200000000E+03  1.2349623338E+02  3.8755622042E+02  2.6770540188E+00  2.6026577340E+00  3.7493645697E-01
  5.7250000000E+03  1.2362728573E+02  3.8741429729E+02  2.6842839923E+00  2.6095429463E+00  3.7516221169E-01
  5.7300000000E+03  1.2375836256E+02  3.8727254996E+02  2.6915271515E+00  2.6164400307E+00  3.7538782192E-01
  5.7350000000E+03  1.2388946386E+02  3.8713097806E+02  2.6987835091E+00  2.6233489957E+00  3.7561328817E-01
  5.7400000000E+03  1.2402058961E+02  3.8698958122E+02  2.7060530774E+00  2.6302698499E+00  3.7583861092E-01
  5.7450000000E+03  1.2415173979E+02  3.8684835908E+02  2.7133358690E+00  2.6372026019E+00  3.7606379066E-01
  5.7500000000E+03  1.2428291439E+02  3.8670731125E+02  2.7206318963E+00  2.6441472602E+00  3.7628882787E-01
  5.7550000000E+03  1.2441412133E+02  3.8656643738E+02  2.7279411720E+00  2.6511038369E+00  3.7651372305E-01
  5.7600000000E+03  1.2454541102E+02  3.8642573711E+02  2.7352637085E+00  2.6580723636E+00  3.7673847667E-01
  5.7650000000E+03  1.2467672516E+02  3.8628521006E+02  2.7425995183E+00  2.6650528224E+00  3.7696308923E-01
  5.7700000000E+03  1.2480806374E+02  3.8614485588E+02  2.7499486138E+00  2.6720452218E+00  3.7718756119E-01
  5.7750000000E+03  1.2493942672E+02  3.8600557537E+02  2.7573110078E+00  2.6790496136E+00  3.7741189305E-01
  5.7800000000E+03  1.2507081410E+02  3.8586763632E+02  2.7646867125E+00  2.6860660203E+00  3.7763608528E-01
  5.7850000000E+03  1.2520222587E+02  3.8572986578E+02  2.7720757406E+00  2.6930943941E+00  3.7786013836E-01
  5.7900000000E+03  1.2533366200E+02  3.8559226338E+02  2.7794781045E+00  2.7001347434E+00  3.7808405276E-01
  5.7950000000E+03  1.2546512247E+02  3.8545482879E+02  2.7868938169E+00  2.7071870769E+00  3.7830782897E-01
  5.8000000000E+03  1.2559660728E+02  3.8531756165E+02  2.7943228901E+00  2.7142514029E+00  3.7853146745E-01
  5.8050000000E+03  1.2572811640E+02  3.8518046161E+02  2.8017653367E+00  2.7213277299E+00  3.7875496867E-01
  5.8100000000E+03  1.2585989866E+02  3.8504352832E+02  2.8092211692E+00  2.7284161833E+00  3.7897833312E-01
  5.8150000000E+03  1.2599198404E+02  3.8490676145E+02  2.8166904001E+00  2.7355167867E+00  3.7920156126E-01
  5.8200000000E+03  1.2612409433E+02  3.8477016064E+02  2.8241730420E+00  2.7426294184E+00  3.7942465356E-01
  5.8250000000E+03  1.2625622953E+02  3.8463372555E+02  2.8316691074E+00  2.7497540866E+00  3.7964761048E-01
  5.8300000000E+03  1.2638838960E+02  3.8449745584E+02  2.8391786087E+00  2.7568907999E+00  3.7987043250E-01
  5.8350000000E+03  1.2652057454E+02  3.8436135116E+02  2.8467015586E+00  2.7640395667E+00  3.8009312007E-01
  5.8400000000E+03  1.2665278433E+02  3.8422541118E+02  2.8542379695E+00  2.7712003954E+00  3.8031567367E-01
  5.8450000000E+03  1.2678501896E+02  3.8408963555E+02  2.8617878539E+00  2.7783732944E+00  3.8053809376E-01
  5.8500000000E+03  1.2691727839E+02  3.8395402394E+02  2.8693512244E+00  2.7855582720E+00  3.8076038079E-01
  5.8550000000E+03  1.2704956263E+02  3.8381857600E+02  2.8769280935E+00  2.7927553367E+00  3.8098253523E-01
  5.8600000000E+03  1.2718187165E+02  3.8368329141E+02  2.8845184737E+00  2.7999644969E+00  3.8120455755E-01
  5.8650000000E+03  1.2731422021E+02  3.8354816982E+02  2.8921223776E+00  2.8071857681E+00  3.8142644819E-01
  5.8700000000E+03  1.2744659916E+02  3.8341489533E+02  2.8997398176E+00  2.8144192450E+00  3.8164820761E-01
  5.8750000000E+03  1.2757900288E+02  3.8328208267E+02  2.9073708064E+00  2.8216648598E+00  3.8186983627E-01
  5.8800000000E+03  1.2771143133E+02  3.8314942894E+02  2.9150153563E+00  2.8289226047E+00  3.8209133463E-01
  5.8850000000E+03  1.2784388451E+02  3.8301693382E+02  2.9226734800E+00  2.8361924880E+00  3.8231270314E-01
  5.8900000000E+03  1.2797636240E+02  3.8288459698E+02  2.9303451900E+00  2.8434745181E+00  3.8253394225E-01
  5.8950000000E+03  1.2810886499E+02  3.8275241810E+02  2.9380304989E+00  2.8507687033E+00  3.8275505242E-01
  5.9000000000E+03  1.2824139225E+02  3.8262039685E+02  2.9457294190E+00  2.8580750518E+00  3.8297603409E-01
  5.9050000000E+03  1.2837394417E+02  3.8248853292E+02  2.9534419631E+00  2.8653935721E+00  3.8319688771E-01
  5.9100000000E+03  1.2850652073E+02  3.8235682598E+02  2.9611681436E+00  2.8727242724E+00  3.8341761373E-01
  5.9150000000E+03  1.2863912192E+02  3.8222527572E+02  2.9689079730E+00  2.8800671610E+00  3.8363821260E-01
  5.9200000000E+03  1.2877178255E+02  3.8209388182E+02  2.9766614639E+00  2.8874222637E+00  3.8385868477E-01
  5.9250000000E+03  1.2890447275E+02  3.8196264395E+02  2.9844286288E+00  2.8947895740E+00  3.8407903068E-01
  5.9300000000E+03  1.2903718758E+02  3.8183156181E+02  2.9922094803E+00  2.9021690976E+00  3.8429925077E-01
  5.9350000000E+03  1.2916992702E+02  3.8170063507E+02  3.0000040309E+00  2.9095608428E+00  3.8451934549E-01
  5.9400000000E+03  1.2930269105E+02  3.8156986342E+02  3.0078122931E+00  2.9169648178E+00  3.8473931528E-01
  5.9450000000E+03  1.2943547967E+02  3.8143924655E+02  3.0156342795E+00  2.9243810309E+00  3.8495916057E-01
  5.9500000000E+03  1.2956829284E+02  3.8130878414E+02  3.0234700026E+00  2.9318094904E+00  3.8517888182E-01
  5.9550000000E+03  1.2970113056E+02  3.8117847589E+02  3.0313194750E+00  2.9392502044E+00  3.8539847946E-01
  5.9600000000E+03  1.2983399282E+02  3.8104832147E+02  3.0391827092E+00  2.9467031813E+00  3.8561795392E-01
  5.9650000000E+03  1.2996687958E+02  3.8092015171E+02  3.0470597177E+00  2.9541685393E+00  3.8583730564E-01
  5.9700000000E+03  1.3009979085E+02  3.8079220532E+02  3.0549505131E+00  2.9616461820E+00  3.8605653506E-01
  5.9750000000E+03  1.3023260793E+02  3.8066440897E+02  3.0628551079E+00  2.9691360517E+00  3.8627564262E-01
  5.9800000000E+03  1.3036544039E+02  3.8053676235E+02  3.0707735148E+00  2.9766382130E+00  3.8649462874E-01
  5.9850000000E+03  1.3049829715E+02  3.8040926517E+02  3.0787057461E+00  2.9841526788E+00  3.8671349386E-01
  5.9900000000E+03  1.3063117819E+02  3.8028191712E+02  3.0866518145E+00  2.9916794573E+00  3.8693223841E-01
  5.9950000000E+03  1.3076408350E+02  3.8015471790E+02  3.0946117326E+00  2.9992185567E+00  3.8715086282E-01
  6.0000000000E+03  1.3089701306E+02  3.8002766722E+02  3.1025855128E+00  3.0067699850E+00  3.8736936752E-01
  6.0050000000E+03  1.3102996684E+02  3.7990076478E+02  3.1106232488E+00  3.0143807806E+00  3.8758775295E-01
  6.0100000000E+03  1.3116294485E+02  3.7977401029E+02  3.1186750888E+00  3.0220041138E+00  3.8780601952E-01
  6.0150000000E+03  1.3129594706E+02  3.7964740344E+02  3.1267410458E+00  3.0296399933E+00  3.8802416766E-01
  6.0200000000E+03  1.3142897346E+02  3.7952094395E+02  3.1348211328E+00  3.0372884273E+00  3.8824219781E-01
  6.0250000000E+03  1.3156202402E+02  3.7939463151E+02  3.1429153627E+00  3.0449494245E+00  3.8846011038E-01
  6.0300000000E+03  1.3169541856E+02  3.7926846585E+02  3.1510237486E+00  3.0526231649E+00  3.8867790580E-01
  6.0350000000E+03  1.3182888126E+02  3.7914244665E+02  3.1591463034E+00  3.0603095099E+00  3.8889558450E-01
  6.0400000000E+03  1.3196236851E+02  3.7901657365E+02  3.1672830401E+00  3.0680084447E+00  3.8911314688E-01
  6.0450000000E+03  1.3209588031E+02  3.7889084653E+02  3.1754339717E+00  3.0757199776E+00  3.8933059339E-01
  6.0500000000E+03  1.3222941663E+02  3.7876526502E+02  3.1835991111E+00  3.0834441169E+00  3.8954792442E-01
  6.0550000000E+03  1.3236297746E+02  3.7863982883E+02  3.1917784714E+00  3.0911808712E+00  3.8976514042E-01
  6.0600000000E+03  1.3249656278E+02  3.7851594466E+02  3.1999720655E+00  3.0989303430E+00  3.8998224179E-01
  6.0650000000E+03  1.3263017259E+02  3.7839261961E+02  3.2081799064E+00  3.1066924755E+00  3.9019922895E-01
  6.0700000000E+03  1.3276380685E+02  3.7826943633E+02  3.2164020072E+00  3.1144672492E+00  3.9041610231E-01
  6.0750000000E+03  1.3289746557E+02  3.7814639452E+02  3.2246383807E+00  3.1222546725E+00  3.9063286231E-01
  6.0800000000E+03  1.3303114871E+02  3.7802349392E+02  3.2328890400E+00  3.1300547537E+00  3.9084950934E-01
  6.0850000000E+03  1.3316616110E+02  3.7790073423E+02  3.2411539981E+00  3.1378682256E+00  3.9106604382E-01
  6.0900000000E+03  1.3330168234E+02  3.7777811520E+02  3.2494332680E+00  3.1456946462E+00  3.9128246617E-01
  6.0950000000E+03  1.3343723011E+02  3.7765563653E+02  3.2577268626E+00  3.1535337569E+00  3.9149877679E-01
  6.1000000000E+03  1.3357280439E+02  3.7753329795E+02  3.2660347950E+00  3.1613855659E+00  3.9171497611E-01
  6.1050000000E+03  1.3370840516E+02  3.7741109919E+02  3.2743570782E+00  3.1692500816E+00  3.9193106453E-01
  6.1100000000E+03  1.3384403242E+02  3.7728903998E+02  3.2826937251E+00  3.1771273124E+00  3.9214704246E-01
  6.1150000000E+03  1.3397968614E+02  3.7716712004E+02  3.2910447487E+00  3.1850172665E+00  3.9236291030E-01
  6.1200000000E+03  1.3411536630E+02  3.7704533910E+02  3.2994101621E+00  3.1929199523E+00  3.9257866848E-01
  6.1250000000E+03  1.3425107289E+02  3.7692369688E+02  3.3077899783E+00  3.2008353781E+00  3.9279431738E-01
  6.1300000000E+03  1.3438680590E+02  3.7680219312E+02  3.3161842101E+00  3.2087635521E+00  3.9300985743E-01
  6.1350000000E+03  1.3452256530E+02  3.7668082754E+02  3.3245928708E+00  3.2167044827E+00  3.9322528903E-01
  6.1400000000E+03  1.3465834634E+02  3.7655959988E+02  3.3330159732E+00  3.2246581753E+00  3.9344061257E-01
  6.1450000000E+03  1.3479414852E+02  3.7643850987E+02  3.3414535304E+00  3.2326246381E+00  3.9365582848E-01
  6.1500000000E+03  1.3492997703E+02  3.7631755723E+02  3.3499055553E+00  3.2406038821E+00  3.9387093714E-01
  6.1550000000E+03  1.3506583187E+02  3.7619721717E+02  3.3583720610E+00  3.2485959512E+00  3.9408593896E-01
  6.1600000000E+03  1.3520171300E+02  3.7607828273E+02  3.3668530604E+00  3.2566009136E+00  3.9430083434E-01
  6.1650000000E+03  1.3533762043E+02  3.7595948234E+02  3.3753485667E+00  3.2646186833E+00  3.9451562370E-01
  6.1700000000E+03  1.3547355412E+02  3.7584081574E+02  3.3838585928E+00  3.2726492685E+00  3.9473030779E-01
  6.1750000000E+03  1.3560951407E+02  3.7572228268E+02  3.3923831516E+00  3.2806926775E+00  3.9494488722E-01
  6.1800000000E+03  1.3574550025E+02  3.7560388289E+02  3.4009222563E+00  3.2887489184E+00  3.9515936239E-01
  6.1850000000E+03  1.3588151266E+02  3.7548561612E+02  3.4094759199E+00  3.2968179995E+00  3.9537373368E-01
  6.1900000000E+03  1.3601755127E+02  3.7536748212E+02  3.4180441552E+00  3.3048999290E+00  3.9558800146E-01
  6.1950000000E+03  1.3615361127E+02  3.7524948062E+02  3.4266269755E+00  3.3129947122E+00  3.9580216614E-01
  6.2000000000E+03  1.3628966154E+02  3.7513161138E+02  3.4352243936E+00  3.3211023388E+00  3.9601622809E-01
  6.2050000000E+03  1.3642573792E+02  3.7501387413E+02  3.4438364226E+00  3.3292228381E+00  3.9623018769E-01
  6.2100000000E+03  1.3656184040E+02  3.7489626862E+02  3.4524630755E+00  3.3373562183E+00  3.9644404533E-01
  6.2150000000E+03  1.3669796895E+02  3.7477879461E+02  3.4611043654E+00  3.3455024876E+00  3.9665780140E-01
  6.2200000000E+03  1.3683412356E+02  3.7466145183E+02  3.4697603052E+00  3.3536616541E+00  3.9687145626E-01
  6.2250000000E+03  1.3697030422E+02  3.7454424003E+02  3.4784309080E+00  3.3618337258E+00  3.9708501031E-01
  6.2300000000E+03  1.3710651090E+02  3.7442715897E+02  3.4871161869E+00  3.3700187111E+00  3.9729846392E-01
  6.2350000000E+03  1.3724274360E+02  3.7431020839E+02  3.4958161547E+00  3.3782166179E+00  3.9751181747E-01
  6.2400000000E+03  1.3737900230E+02  3.7419338804E+02  3.5045308246E+00  3.3864274544E+00  3.9772507133E-01
  6.2450000000E+03  1.3751528697E+02  3.7407669768E+02  3.5132602095E+00  3.3946512286E+00  3.9793822589E-01
  6.2500000000E+03  1.3765159761E+02  3.7396013705E+02  3.5220043226E+00  3.4028879488E+00  3.9815128152E-01
  6.2550000000E+03  1.3778798047E+02  3.7384447282E+02  3.5307631768E+00  3.4111377151E+00  3.9836423860E-01
  6.2600000000E+03  1.3792441381E+02  3.7372983892E+02  3.5395367852E+00  3.4194005347E+00  3.9857709750E-01
  6.2650000000E+03  1.3806087315E+02  3.7361533165E+02  3.5483251607E+00  3.4276763261E+00  3.9878985860E-01
  6.2700000000E+03  1.3819735848E+02  3.7350095078E+02  3.5571283165E+00  3.4359650973E+00  3.9900252226E-01
  6.2750000000E+03  1.3833386977E+02  3.7338669605E+02  3.5659462656E+00  3.4442668563E+00  3.9921508887E-01
  6.2800000000E+03  1.3847040702E+02  3.7327256724E+02  3.5747790209E+00  3.4525816112E+00  3.9942755879E-01
  6.2850000000E+03  1.3860697021E+02  3.7315856410E+02  3.5836265956E+00  3.4609093699E+00  3.9963993239E-01
  6.2900000000E+03  1.3874355932E+02  3.7304468640E+02  3.5924890026E+00  3.4692501407E+00  3.9985221005E-01
  6.2950000000E+03  1.3888017434E+02  3.7293093389E+02  3.6013662550E+00  3.4776039313E+00  4.0006439213E-01
  6.3000000000E+03  1.3901681525E+02  3.7281730635E+02  3.6102583659E+00  3.4859707500E+00  4.0027647901E-01
  6.3050000000E+03  1.3915348204E+02  3.7270380353E+02  3.6191653482E+00  3.4943506046E+00  4.0048847104E-01
  6.3100000000E+03  1.3929016596E+02  3.7259042519E+02  3.6280872151E+00  3.5027434977E+00  4.0070036861E-01
  6.3150000000E+03  1.3942678294E+02  3.7247717112E+02  3.6370239795E+00  3.5111493838E+00  4.0091217207E-01
  6.3200000000E+03  1.3956342563E+02  3.7236404106E+02  3.6459756545E+00  3.5195683294E+00  4.0112388179E-01
  6.3250000000E+03  1.3970009402E+02  3.7225103479E+02  3.6549422532E+00  3.5280003424E+00  4.0133549814E-01
  6.3300000000E+03  1.3983678809E+02  3.7213815207E+02  3.6639237885E+00  3.5364454308E+00  4.0154702148E-01
  6.3350000000E+03  1.3997350782E+02  3.7202539267E+02  3.6729202736E+00  3.5449036026E+00  4.0175845217E-01
  6.3400000000E+03  1.4011025320E+02  3.7191275636E+02  3.6819317214E+00  3.5533748656E+00  4.0196979059E-01
  6.3450000000E+03  1.4024702421E+02  3.7180024290E+02  3.6909581451E+00  3.5618592279E+00  4.0218103708E-01
  6.3500000000E+03  1.4038382084E+02  3.7168785207E+02  3.6999995577E+00  3.5703566972E+00  4.0239219202E-01
