#[MATERIAL DEFINITION FOR MC-GPU: interaction mean free path and sampling data from PENELOPE 2018]
#[MATERIAL NAME]
# ALUMINIUM  (13)                                               
#[NOMINAL DENSITY (g/cm^3)]
#   2.69890000
#[NUMBER OF DATA VALUES]
#  23002
#[MEAN FREE PATHS (cm) (ie, average distance between interactions)]
#[Energy (eV)     | Rayleigh        | Compton         | Photoelectric   | TOTAL (+pair prod) (cm) | Rayleigh: max cumul prob F^2]
  5.0000000000E+03  3.0743278155E-01  4.9646464170E+00  1.9453762657E-03  1.9323912612E-03  2.8157168070E-01
  5.0050000000E+03  3.0768406296E-01  4.9614685976E+00  1.9509207704E-03  1.9378713833E-03  2.8192113433E-01
  5.0100000000E+03  3.0793529855E-01  4.9582959824E+00  1.9564755175E-03  1.9433614923E-03  2.8227047743E-01
  5.0150000000E+03  3.0818649358E-01  4.9551285576E+00  1.9620405158E-03  1.9488615963E-03  2.8261970941E-01
  5.0200000000E+03  3.0843764601E-01  4.9519663095E+00  1.9676157740E-03  1.9543717031E-03  2.8296882966E-01
  5.0250000000E+03  3.0868875277E-01  4.9488092245E+00  1.9732013006E-03  1.9598918205E-03  2.8331783758E-01
  5.0300000000E+03  3.0893981393E-01  4.9456572892E+00  1.9787971044E-03  1.9654219565E-03  2.8366673257E-01
  5.0350000000E+03  3.0919082954E-01  4.9425104899E+00  1.9844031940E-03  1.9709621188E-03  2.8401551404E-01
  5.0400000000E+03  3.0944179965E-01  4.9393688133E+00  1.9900195781E-03  1.9765123155E-03  2.8436418138E-01
  5.0450000000E+03  3.0969272431E-01  4.9362322458E+00  1.9956462653E-03  1.9820725543E-03  2.8471273400E-01
  5.0500000000E+03  3.0994360359E-01  4.9331007743E+00  2.0012832643E-03  1.9876428431E-03  2.8506117132E-01
  5.0550000000E+03  3.1019443752E-01  4.9299743852E+00  2.0069305839E-03  1.9932231900E-03  2.8540949273E-01
  5.0600000000E+03  3.1044525058E-01  4.9268530655E+00  2.0125882325E-03  1.9988136036E-03  2.8575769766E-01
  5.0650000000E+03  3.1069606378E-01  4.9237368018E+00  2.0182562189E-03  2.0044140929E-03  2.8610578552E-01
  5.0700000000E+03  3.1094683184E-01  4.9206255810E+00  2.0239345518E-03  2.0100246637E-03  2.8645375572E-01
  5.0750000000E+03  3.1119755482E-01  4.9175193900E+00  2.0296232398E-03  2.0156453241E-03  2.8680160768E-01
  5.0800000000E+03  3.1144823277E-01  4.9144182157E+00  2.0353222915E-03  2.0212760818E-03  2.8714934083E-01
  5.0850000000E+03  3.1169886573E-01  4.9113336862E+00  2.0410317157E-03  2.0269169466E-03  2.8749695457E-01
  5.0900000000E+03  3.1194945377E-01  4.9082552499E+00  2.0467515209E-03  2.0325679248E-03  2.8784444835E-01
  5.0950000000E+03  3.1219999694E-01  4.9051817630E+00  2.0524817158E-03  2.0382290239E-03  2.8819182157E-01
  5.1000000000E+03  3.1245049528E-01  4.9021132125E+00  2.0582223090E-03  2.0439002519E-03  2.8853907368E-01
  5.1050000000E+03  3.1270094886E-01  4.8990495856E+00  2.0639733093E-03  2.0495816165E-03  2.8888620409E-01
  5.1100000000E+03  3.1295132782E-01  4.8959908698E+00  2.0697347252E-03  2.0552731244E-03  2.8923321224E-01
  5.1150000000E+03  3.1320166180E-01  4.8929370523E+00  2.0755065654E-03  2.0609747846E-03  2.8958009757E-01
  5.1200000000E+03  3.1345195114E-01  4.8898881204E+00  2.0812888385E-03  2.0666866050E-03  2.8992685950E-01
  5.1250000000E+03  3.1370219590E-01  4.8868440617E+00  2.0870815532E-03  2.0724085934E-03  2.9027349748E-01
  5.1300000000E+03  3.1395239613E-01  4.8838048636E+00  2.0928847182E-03  2.0781407578E-03  2.9062001095E-01
  5.1350000000E+03  3.1420255188E-01  4.8807705136E+00  2.0986983420E-03  2.0838831058E-03  2.9096639934E-01
  5.1400000000E+03  3.1445266320E-01  4.8777409992E+00  2.1045224332E-03  2.0896356455E-03  2.9131266218E-01
  5.1450000000E+03  3.1470273014E-01  4.8747163081E+00  2.1103570007E-03  2.0953983845E-03  2.9165879920E-01
  5.1500000000E+03  3.1495275276E-01  4.8716964279E+00  2.1162020529E-03  2.1011713308E-03  2.9200480987E-01
  5.1550000000E+03  3.1520274725E-01  4.8686813462E+00  2.1220575985E-03  2.1069544928E-03  2.9235069360E-01
  5.1600000000E+03  3.1545271120E-01  4.8656710509E+00  2.1279236461E-03  2.1127478783E-03  2.9269644984E-01
  5.1650000000E+03  3.1570263098E-01  4.8626727141E+00  2.1338002044E-03  2.1185514959E-03  2.9304207802E-01
  5.1700000000E+03  3.1595250666E-01  4.8596849036E+00  2.1396872820E-03  2.1243653531E-03  2.9338757758E-01
  5.1750000000E+03  3.1620233828E-01  4.8567018144E+00  2.1455848875E-03  2.1301894567E-03  2.9373294794E-01
  5.1800000000E+03  3.1645212590E-01  4.8537234345E+00  2.1514930296E-03  2.1360238145E-03  2.9407818857E-01
  5.1850000000E+03  3.1670186957E-01  4.8507497520E+00  2.1574117169E-03  2.1418684342E-03  2.9442329889E-01
  5.1900000000E+03  3.1695156933E-01  4.8477807549E+00  2.1633409580E-03  2.1477233237E-03  2.9476827835E-01
  5.1950000000E+03  3.1720122524E-01  4.8448164314E+00  2.1692807615E-03  2.1535884909E-03  2.9511312640E-01
  5.2000000000E+03  3.1745083721E-01  4.8418567696E+00  2.1752311361E-03  2.1594639434E-03  2.9545784248E-01
  5.2050000000E+03  3.1770038905E-01  4.8389017576E+00  2.1811920903E-03  2.1653496883E-03  2.9580242605E-01
  5.2100000000E+03  3.1794989718E-01  4.8359513838E+00  2.1871636328E-03  2.1712457342E-03  2.9614687656E-01
  5.2150000000E+03  3.1819936165E-01  4.8330056363E+00  2.1931457723E-03  2.1771520889E-03  2.9649119346E-01
  5.2200000000E+03  3.1844878249E-01  4.8300645037E+00  2.1991385173E-03  2.1830687601E-03  2.9683537621E-01
  5.2250000000E+03  3.1869815977E-01  4.8271279741E+00  2.2051418765E-03  2.1889957557E-03  2.9717942426E-01
  5.2300000000E+03  3.1894749354E-01  4.8241960359E+00  2.2111558584E-03  2.1949330834E-03  2.9752333708E-01
  5.2350000000E+03  3.1919678383E-01  4.8212686778E+00  2.2171804717E-03  2.2008807510E-03  2.9786711413E-01
  5.2400000000E+03  3.1944603071E-01  4.8183458880E+00  2.2232157250E-03  2.2068387663E-03  2.9821075486E-01
  5.2450000000E+03  3.1969523422E-01  4.8154276552E+00  2.2292616269E-03  2.2128071371E-03  2.9855425875E-01
  5.2500000000E+03  3.1994437061E-01  4.8125262284E+00  2.2353181860E-03  2.2187858725E-03  2.9889762527E-01
  5.2550000000E+03  3.2019342585E-01  4.8096301900E+00  2.2413854109E-03  2.2247749774E-03  2.9924085388E-01
  5.2600000000E+03  3.2044243783E-01  4.8067386462E+00  2.2474633103E-03  2.2307744609E-03  2.9958394405E-01
  5.2650000000E+03  3.2069140660E-01  4.8038515856E+00  2.2535518927E-03  2.2367843311E-03  2.9992689526E-01
  5.2700000000E+03  3.2094033221E-01  4.8009689969E+00  2.2596511668E-03  2.2428045955E-03  3.0026970698E-01
  5.2750000000E+03  3.2118921470E-01  4.7980908692E+00  2.2657611411E-03  2.2488352619E-03  3.0061237869E-01
  5.2800000000E+03  3.2143805412E-01  4.7952171912E+00  2.2718818242E-03  2.2548763382E-03  3.0095490988E-01
  5.2850000000E+03  3.2168685053E-01  4.7923479519E+00  2.2780132249E-03  2.2609278320E-03  3.0129730001E-01
  5.2900000000E+03  3.2193560396E-01  4.7894831402E+00  2.2841553515E-03  2.2669897511E-03  3.0163954857E-01
  5.2950000000E+03  3.2218431448E-01  4.7866227451E+00  2.2903082128E-03  2.2730621033E-03  3.0198165505E-01
  5.3000000000E+03  3.2243303205E-01  4.7837667556E+00  2.2964718174E-03  2.2791448988E-03  3.0232361894E-01
  5.3050000000E+03  3.2268173098E-01  4.7809151609E+00  2.3026461738E-03  2.2852381440E-03  3.0266543972E-01
  5.3100000000E+03  3.2293038718E-01  4.7780679499E+00  2.3088312907E-03  2.2913418455E-03  3.0300711688E-01
  5.3150000000E+03  3.2317900069E-01  4.7752251119E+00  2.3150271766E-03  2.2974560110E-03  3.0334864992E-01
  5.3200000000E+03  3.2342757156E-01  4.7723866361E+00  2.3212338401E-03  2.3035806484E-03  3.0369003833E-01
  5.3250000000E+03  3.2367609984E-01  4.7695525116E+00  2.3274512899E-03  2.3097157651E-03  3.0403128160E-01
  5.3300000000E+03  3.2392458558E-01  4.7667233182E+00  2.3336795344E-03  2.3158613693E-03  3.0437237924E-01
  5.3350000000E+03  3.2417302881E-01  4.7639111640E+00  2.3399185824E-03  2.3220174714E-03  3.0471333074E-01
  5.3400000000E+03  3.2442142960E-01  4.7611033008E+00  2.3461684424E-03  2.3281840762E-03  3.0505413561E-01
  5.3450000000E+03  3.2466978798E-01  4.7582997181E+00  2.3524291229E-03  2.3343611914E-03  3.0539479336E-01
  5.3500000000E+03  3.2491801889E-01  4.7555004054E+00  2.3587006326E-03  2.3405488204E-03  3.0573530347E-01
  5.3550000000E+03  3.2516619494E-01  4.7527053522E+00  2.3649829800E-03  2.3467469744E-03  3.0607566547E-01
  5.3600000000E+03  3.2541432866E-01  4.7499145481E+00  2.3712761738E-03  2.3529556620E-03  3.0641587887E-01
  5.3650000000E+03  3.2566242012E-01  4.7471279825E+00  2.3775802225E-03  2.3591748908E-03  3.0675594317E-01
  5.3700000000E+03  3.2591046934E-01  4.7443456453E+00  2.3838951347E-03  2.3654046685E-03  3.0709585789E-01
  5.3750000000E+03  3.2615847639E-01  4.7415675259E+00  2.3902209189E-03  2.3716450028E-03  3.0743562254E-01
  5.3800000000E+03  3.2640644130E-01  4.7387936141E+00  2.3965575838E-03  2.3778959014E-03  3.0777523664E-01
  5.3850000000E+03  3.2665436412E-01  4.7360238996E+00  2.4029051379E-03  2.3841573720E-03  3.0811469971E-01
  5.3900000000E+03  3.2690224490E-01  4.7332583722E+00  2.4092635898E-03  2.3904294223E-03  3.0845401128E-01
  5.3950000000E+03  3.2715008368E-01  4.7304970217E+00  2.4156329481E-03  2.3967120599E-03  3.0879317085E-01
  5.4000000000E+03  3.2739796723E-01  4.7277398379E+00  2.4220132214E-03  2.4030052973E-03  3.0913217797E-01
  5.4050000000E+03  3.2764581089E-01  4.7249868107E+00  2.4284044182E-03  2.4093091376E-03  3.0947103215E-01
  5.4100000000E+03  3.2789361274E-01  4.7222379299E+00  2.4348065470E-03  2.4156235884E-03  3.0980973292E-01
  5.4150000000E+03  3.2814137283E-01  4.7194931856E+00  2.4412196166E-03  2.4219486573E-03  3.1014827982E-01
  5.4200000000E+03  3.2838909120E-01  4.7167644528E+00  2.4476436353E-03  2.4282843551E-03  3.1048667237E-01
  5.4250000000E+03  3.2863676791E-01  4.7140413709E+00  2.4540786119E-03  2.4346306869E-03  3.1082491011E-01
  5.4300000000E+03  3.2888440299E-01  4.7113223675E+00  2.4605245548E-03  2.4409876599E-03  3.1116299258E-01
  5.4350000000E+03  3.2913199649E-01  4.7086074328E+00  2.4669814727E-03  2.4473552817E-03  3.1150091931E-01
  5.4400000000E+03  3.2937954845E-01  4.7058965570E+00  2.4734493740E-03  2.4537335600E-03  3.1183868985E-01
  5.4450000000E+03  3.2962705893E-01  4.7031897301E+00  2.4799282674E-03  2.4601225026E-03  3.1217630373E-01
  5.4500000000E+03  3.2987450855E-01  4.7004869426E+00  2.4864181615E-03  2.4665221158E-03  3.1251376050E-01
  5.4550000000E+03  3.3012191664E-01  4.6977881846E+00  2.4929190647E-03  2.4729324086E-03  3.1285105971E-01
  5.4600000000E+03  3.3036928337E-01  4.6950934465E+00  2.4994309856E-03  2.4793533884E-03  3.1318820089E-01
  5.4650000000E+03  3.3061660878E-01  4.6924027186E+00  2.5059539328E-03  2.4857850631E-03  3.1352518361E-01
  5.4700000000E+03  3.3086389291E-01  4.6897159913E+00  2.5124879149E-03  2.4922274401E-03  3.1386200740E-01
  5.4750000000E+03  3.3111113581E-01  4.6870332550E+00  2.5190329404E-03  2.4986805272E-03  3.1419867183E-01
  5.4800000000E+03  3.3135833753E-01  4.6843545001E+00  2.5255890179E-03  2.5051443321E-03  3.1453517645E-01
  5.4850000000E+03  3.3160549810E-01  4.6816797170E+00  2.5321561558E-03  2.5116188622E-03  3.1487152082E-01
  5.4900000000E+03  3.3185261757E-01  4.6790088964E+00  2.5387343629E-03  2.5181041254E-03  3.1520770448E-01
  5.4950000000E+03  3.3209969599E-01  4.6763420287E+00  2.5453236475E-03  2.5246001291E-03  3.1554372701E-01
  5.5000000000E+03  3.3236046406E-01  4.6736791044E+00  2.5519240183E-03  2.5311076774E-03  3.1587958797E-01
  5.5050000000E+03  3.3262242656E-01  4.6710261901E+00  2.5585844206E-03  2.5376742012E-03  3.1621528692E-01
  5.5100000000E+03  3.3288435744E-01  4.6683846902E+00  2.5652561359E-03  2.5442517009E-03  3.1655082342E-01
  5.5150000000E+03  3.3314625672E-01  4.6657470780E+00  2.5719391731E-03  2.5508401824E-03  3.1688619704E-01
  5.5200000000E+03  3.3340812444E-01  4.6631133443E+00  2.5786335412E-03  2.5574396534E-03  3.1722140735E-01
  5.5250000000E+03  3.3366996062E-01  4.6604834797E+00  2.5853392490E-03  2.5640501222E-03  3.1755645393E-01
  5.5300000000E+03  3.3393176531E-01  4.6578574752E+00  2.5920563055E-03  2.5706715966E-03  3.1789133635E-01
  5.5350000000E+03  3.3419353853E-01  4.6552353217E+00  2.5987847196E-03  2.5773040847E-03  3.1822605418E-01
  5.5400000000E+03  3.3445528031E-01  4.6526170099E+00  2.6055245002E-03  2.5839475944E-03  3.1856060699E-01
  5.5450000000E+03  3.3471699069E-01  4.6500025308E+00  2.6122756563E-03  2.5906021338E-03  3.1889499437E-01
  5.5500000000E+03  3.3498508296E-01  4.6473918753E+00  2.6190381967E-03  2.5972680962E-03  3.1922921590E-01
  5.5550000000E+03  3.3525530965E-01  4.6447850344E+00  2.6258121303E-03  2.6039452376E-03  3.1956327116E-01
  5.5600000000E+03  3.3552551092E-01  4.6421819992E+00  2.6325974662E-03  2.6106334366E-03  3.1989715973E-01
  5.5650000000E+03  3.3579568679E-01  4.6395827606E+00  2.6393942131E-03  2.6173327012E-03  3.2023088120E-01
  5.5700000000E+03  3.3606583728E-01  4.6369873097E+00  2.6462023801E-03  2.6240430393E-03  3.2056443515E-01
  5.5750000000E+03  3.3633596242E-01  4.6343956375E+00  2.6530219760E-03  2.6307644590E-03  3.2089782119E-01
  5.5800000000E+03  3.3660606224E-01  4.6318077353E+00  2.6598530097E-03  2.6374969681E-03  3.2123103889E-01
  5.5850000000E+03  3.3687613675E-01  4.6292235941E+00  2.6666954901E-03  2.6442405747E-03  3.2156408785E-01
  5.5900000000E+03  3.3714618599E-01  4.6266432051E+00  2.6735494262E-03  2.6509952868E-03  3.2189696767E-01
  5.5950000000E+03  3.3741620998E-01  4.6240765729E+00  2.6804148268E-03  2.6577611157E-03  3.2222967794E-01
  5.6000000000E+03  3.3768620326E-01  4.6215173584E+00  2.6872917009E-03  2.6645380668E-03  3.2256221826E-01
  5.6050000000E+03  3.3795616547E-01  4.6189618425E+00  2.6941800573E-03  2.6713261470E-03  3.2289458823E-01
  5.6100000000E+03  3.3822610250E-01  4.6164100164E+00  2.7010799050E-03  2.6781253646E-03  3.2322678745E-01
  5.6150000000E+03  3.3849601437E-01  4.6138618716E+00  2.7079912529E-03  2.6849357274E-03  3.2355881554E-01
  5.6200000000E+03  3.3876590110E-01  4.6113173994E+00  2.7149141098E-03  2.6917572436E-03  3.2389067208E-01
  5.6250000000E+03  3.3903576273E-01  4.6087765914E+00  2.7218484848E-03  2.6985899210E-03  3.2422235670E-01
  5.6300000000E+03  3.3930559927E-01  4.6062394390E+00  2.7287943865E-03  2.7054337676E-03  3.2455386925E-01
  5.6350000000E+03  3.3957541075E-01  4.6037059336E+00  2.7357518241E-03  2.7122887914E-03  3.2488521048E-01
  5.6400000000E+03  3.3984519720E-01  4.6011760669E+00  2.7427208063E-03  2.7191550002E-03  3.2521638016E-01
  5.6450000000E+03  3.4011495863E-01  4.5986498304E+00  2.7497013421E-03  2.7260324021E-03  3.2554737789E-01
  5.6500000000E+03  3.4038469600E-01  4.5961272157E+00  2.7566934403E-03  2.7329210050E-03  3.2587820327E-01
  5.6550000000E+03  3.4065441479E-01  4.5936082143E+00  2.7636971098E-03  2.7398208172E-03  3.2620885590E-01
  5.6600000000E+03  3.4092410864E-01  4.5910928179E+00  2.7707123597E-03  2.7467318463E-03  3.2653933541E-01
  5.6650000000E+03  3.4119377759E-01  4.5885810182E+00  2.7777391986E-03  2.7536541001E-03  3.2686964140E-01
  5.6700000000E+03  3.4146342165E-01  4.5860728069E+00  2.7847776356E-03  2.7605875867E-03  3.2719977348E-01
  5.6750000000E+03  3.4173304086E-01  4.5835681756E+00  2.7918276795E-03  2.7675323139E-03  3.2752973128E-01
  5.6800000000E+03  3.4200263523E-01  4.5810671162E+00  2.7988893392E-03  2.7744882896E-03  3.2785951440E-01
  5.6850000000E+03  3.4227220478E-01  4.5785796904E+00  2.8059626235E-03  2.7814555256E-03  3.2818912247E-01
  5.6900000000E+03  3.4254174955E-01  4.5760995743E+00  2.8130475415E-03  2.7884340274E-03  3.2851855511E-01
  5.6950000000E+03  3.4281126956E-01  4.5736229782E+00  2.8201441019E-03  2.7954238016E-03  3.2884781193E-01
  5.7000000000E+03  3.4308076483E-01  4.5711498941E+00  2.8272523137E-03  2.8024248561E-03  3.2917689257E-01
  5.7050000000E+03  3.4335020906E-01  4.5686803140E+00  2.8343721857E-03  2.8094371970E-03  3.2950579665E-01
  5.7100000000E+03  3.4361961573E-01  4.5662142297E+00  2.8415037269E-03  2.8164608331E-03  3.2983452380E-01
  5.7150000000E+03  3.4388899770E-01  4.5637516334E+00  2.8486469460E-03  2.8234957733E-03  3.3016307365E-01
  5.7200000000E+03  3.4415835501E-01  4.5612925169E+00  2.8558018520E-03  2.8305420253E-03  3.3049144582E-01
  5.7250000000E+03  3.4442768767E-01  4.5588368724E+00  2.8629684538E-03  2.8375995971E-03  3.3081963996E-01
  5.7300000000E+03  3.4469699570E-01  4.5563846920E+00  2.8701467602E-03  2.8446684966E-03  3.3114765570E-01
  5.7350000000E+03  3.4496627914E-01  4.5539359677E+00  2.8773367801E-03  2.8517487317E-03  3.3147549266E-01
  5.7400000000E+03  3.4523553800E-01  4.5514906916E+00  2.8845385224E-03  2.8588403102E-03  3.3180315050E-01
  5.7450000000E+03  3.4550477231E-01  4.5490488560E+00  2.8917519960E-03  2.8659432402E-03  3.3213062885E-01
  5.7500000000E+03  3.4577398209E-01  4.5466104529E+00  2.8989772097E-03  2.8730575294E-03  3.3245792736E-01
  5.7550000000E+03  3.4604316927E-01  4.5441754746E+00  2.9062141725E-03  2.8801831858E-03  3.3278504566E-01
  5.7600000000E+03  3.4631234599E-01  4.5417439133E+00  2.9134628931E-03  2.8873202182E-03  3.3311198340E-01
  5.7650000000E+03  3.4658149825E-01  4.5393157612E+00  2.9207233805E-03  2.8944686336E-03  3.3343874023E-01
  5.7700000000E+03  3.4685062609E-01  4.5368910106E+00  2.9279956435E-03  2.9016284397E-03  3.3376531580E-01
  5.7750000000E+03  3.4711972953E-01  4.5344757250E+00  2.9352796911E-03  2.9087996469E-03  3.3409170976E-01
  5.7800000000E+03  3.4738880859E-01  4.5320716996E+00  2.9425755320E-03  2.9159822640E-03  3.3441792176E-01
  5.7850000000E+03  3.4765786330E-01  4.5296710259E+00  2.9498831751E-03  2.9231762955E-03  3.3474395145E-01
  5.7900000000E+03  3.4792689368E-01  4.5272736962E+00  2.9572026293E-03  2.9303817493E-03  3.3506979850E-01
  5.7950000000E+03  3.4819589976E-01  4.5248797030E+00  2.9645339035E-03  2.9375986333E-03  3.3539546255E-01
  5.8000000000E+03  3.4846488155E-01  4.5224890388E+00  2.9718770066E-03  2.9448269553E-03  3.3572094327E-01
  5.8050000000E+03  3.4873383908E-01  4.5201016960E+00  2.9792319473E-03  2.9520667231E-03  3.3604624032E-01
  5.8100000000E+03  3.4900279912E-01  4.5177176672E+00  2.9865987346E-03  2.9593179467E-03  3.3637135336E-01
  5.8150000000E+03  3.4927176492E-01  4.5153369450E+00  2.9939773774E-03  2.9665806340E-03  3.3669628205E-01
  5.8200000000E+03  3.4954070657E-01  4.5129595220E+00  3.0013678844E-03  2.9738547907E-03  3.3702102606E-01
  5.8250000000E+03  3.4980962408E-01  4.5105853906E+00  3.0087702645E-03  2.9811404248E-03  3.3734558507E-01
  5.8300000000E+03  3.5007851749E-01  4.5082145437E+00  3.0161845267E-03  2.9884375440E-03  3.3766995873E-01
  5.8350000000E+03  3.5034738681E-01  4.5058469737E+00  3.0236106797E-03  2.9957461562E-03  3.3799414671E-01
  5.8400000000E+03  3.5061623207E-01  4.5034826734E+00  3.0310487324E-03  3.0030662692E-03  3.3831814870E-01
  5.8450000000E+03  3.5088505329E-01  4.5011216355E+00  3.0384986937E-03  3.0103978909E-03  3.3864196437E-01
  5.8500000000E+03  3.5115385050E-01  4.4987638526E+00  3.0459605724E-03  3.0177410290E-03  3.3896559339E-01
  5.8550000000E+03  3.5142262371E-01  4.4964093176E+00  3.0534343774E-03  3.0250956915E-03  3.3928903543E-01
  5.8600000000E+03  3.5169137295E-01  4.4940580231E+00  3.0609201176E-03  3.0324618862E-03  3.3961229019E-01
  5.8650000000E+03  3.5195999334E-01  4.4917099620E+00  3.0684178017E-03  3.0398396129E-03  3.3993535734E-01
  5.8700000000E+03  3.5222854973E-01  4.4893770458E+00  3.0759274386E-03  3.0472288899E-03  3.4025823656E-01
  5.8750000000E+03  3.5249708212E-01  4.4870494633E+00  3.0834490373E-03  3.0546297235E-03  3.4058092754E-01
  5.8800000000E+03  3.5276559054E-01  4.4847250662E+00  3.0909826064E-03  3.0620421204E-03  3.4090342997E-01
  5.8850000000E+03  3.5303407499E-01  4.4824038473E+00  3.0985281550E-03  3.0694660886E-03  3.4122574352E-01
  5.8900000000E+03  3.5330253552E-01  4.4800857996E+00  3.1060856918E-03  3.0769016358E-03  3.4154786790E-01
  5.8950000000E+03  3.5357097213E-01  4.4777709161E+00  3.1136552256E-03  3.0843487698E-03  3.4186980280E-01
  5.9000000000E+03  3.5383938486E-01  4.4754591898E+00  3.1212367654E-03  3.0918074984E-03  3.4219154789E-01
  5.9050000000E+03  3.5410777372E-01  4.4731506137E+00  3.1288303199E-03  3.0992778295E-03  3.4251310289E-01
  5.9100000000E+03  3.5437613873E-01  4.4708451808E+00  3.1364358980E-03  3.1067597708E-03  3.4283446749E-01
  5.9150000000E+03  3.5464447993E-01  4.4685428843E+00  3.1440535086E-03  3.1142533301E-03  3.4315564138E-01
  5.9200000000E+03  3.5491295997E-01  4.4662437172E+00  3.1516831604E-03  3.1217585278E-03  3.4347662427E-01
  5.9250000000E+03  3.5518143938E-01  4.4639476726E+00  3.1593248624E-03  3.1292753610E-03  3.4379741585E-01
  5.9300000000E+03  3.5544989515E-01  4.4616547437E+00  3.1669786233E-03  3.1368038357E-03  3.4411801584E-01
  5.9350000000E+03  3.5571832732E-01  4.4593649235E+00  3.1746444521E-03  3.1443439597E-03  3.4443842392E-01
  5.9400000000E+03  3.5598673590E-01  4.4570782054E+00  3.1823223575E-03  3.1518957407E-03  3.4475863981E-01
  5.9450000000E+03  3.5625512092E-01  4.4547945824E+00  3.1900123483E-03  3.1594591866E-03  3.4507866322E-01
  5.9500000000E+03  3.5652348239E-01  4.4525140477E+00  3.1977144335E-03  3.1670343051E-03  3.4539849386E-01
  5.9550000000E+03  3.5679182034E-01  4.4502365947E+00  3.2054286218E-03  3.1746211040E-03  3.4571813144E-01
  5.9600000000E+03  3.5706013479E-01  4.4479622166E+00  3.2131549221E-03  3.1822195910E-03  3.4603757566E-01
  5.9650000000E+03  3.5732842577E-01  4.4457045035E+00  3.2208933432E-03  3.1898297809E-03  3.4635682625E-01
  5.9700000000E+03  3.5759669329E-01  4.4434503681E+00  3.2286438939E-03  3.1974516749E-03  3.4667588292E-01
  5.9750000000E+03  3.5786478308E-01  4.4411992613E+00  3.2364065831E-03  3.2050852680E-03  3.4699474539E-01
  5.9800000000E+03  3.5813283775E-01  4.4389511765E+00  3.2441814196E-03  3.2127305794E-03  3.4731341338E-01
  5.9850000000E+03  3.5840086891E-01  4.4367061071E+00  3.2519684122E-03  3.2203876177E-03  3.4763188660E-01
  5.9900000000E+03  3.5866887660E-01  4.4344640466E+00  3.2597675698E-03  3.2280563907E-03  3.4795016478E-01
  5.9950000000E+03  3.5893686083E-01  4.4322249884E+00  3.2675789012E-03  3.2357369062E-03  3.4826824765E-01
  6.0000000000E+03  3.5920482162E-01  4.4299889259E+00  3.2754024151E-03  3.2434291718E-03  3.4858613493E-01
  6.0050000000E+03  3.5947275900E-01  4.4277558528E+00  3.2833152146E-03  3.2512087892E-03  3.4890382634E-01
  6.0100000000E+03  3.5974067299E-01  4.4255257625E+00  3.2912405205E-03  3.2590004672E-03  3.4922132163E-01
  6.0150000000E+03  3.6000856360E-01  4.4232986485E+00  3.2991783420E-03  3.2668042139E-03  3.4953862050E-01
  6.0200000000E+03  3.6027643087E-01  4.4210745045E+00  3.3071286884E-03  3.2746200376E-03  3.4985572271E-01
  6.0250000000E+03  3.6054427481E-01  4.4188533239E+00  3.3150915692E-03  3.2824479466E-03  3.5017262797E-01
  6.0300000000E+03  3.6081216193E-01  4.4166351005E+00  3.3230669936E-03  3.2902879544E-03  3.5048933604E-01
  6.0350000000E+03  3.6108003487E-01  4.4144198277E+00  3.3310549709E-03  3.2981400647E-03  3.5080584664E-01
  6.0400000000E+03  3.6134788460E-01  4.4122074993E+00  3.3390555106E-03  3.3060042848E-03  3.5112215951E-01
  6.0450000000E+03  3.6161571114E-01  4.4099981089E+00  3.3470686220E-03  3.3138806229E-03  3.5143827439E-01
  6.0500000000E+03  3.6188351451E-01  4.4077916501E+00  3.3550943143E-03  3.3217690872E-03  3.5175419102E-01
  6.0550000000E+03  3.6215129472E-01  4.4055881167E+00  3.3631325969E-03  3.3296696859E-03  3.5206990915E-01
  6.0600000000E+03  3.6241905180E-01  4.4033984245E+00  3.3711834791E-03  3.3375824334E-03  3.5238542853E-01
  6.0650000000E+03  3.6268678578E-01  4.4012148576E+00  3.3792469704E-03  3.3455073336E-03  3.5270074889E-01
  6.0700000000E+03  3.6295449667E-01  4.3990341716E+00  3.3873230799E-03  3.3534443928E-03  3.5301586998E-01
  6.0750000000E+03  3.6322218449E-01  4.3968563603E+00  3.3954118170E-03  3.3613936192E-03  3.5333079156E-01
  6.0800000000E+03  3.6348984926E-01  4.3946814174E+00  3.4035131911E-03  3.3693550209E-03  3.5364551328E-01
  6.0850000000E+03  3.6376669058E-01  4.3925093370E+00  3.4116272114E-03  3.3773293992E-03  3.5396003398E-01
  6.0900000000E+03  3.6404691893E-01  4.3903401129E+00  3.4197538874E-03  3.3853162691E-03  3.5427435314E-01
  6.0950000000E+03  3.6432713292E-01  4.3881737389E+00  3.4278932283E-03  3.3933153467E-03  3.5458847049E-01
  6.1000000000E+03  3.6460733254E-01  4.3860102091E+00  3.4360452434E-03  3.4013266401E-03  3.5490238574E-01
  6.1050000000E+03  3.6488751782E-01  4.3838495173E+00  3.4442099421E-03  3.4093501575E-03  3.5521609860E-01
  6.1100000000E+03  3.6516768877E-01  4.3816916575E+00  3.4523873337E-03  3.4173859070E-03  3.5552960880E-01
  6.1150000000E+03  3.6544784540E-01  4.3795366237E+00  3.4605774275E-03  3.4254338969E-03  3.5584291606E-01
  6.1200000000E+03  3.6572798773E-01  4.3773844099E+00  3.4687802328E-03  3.4334941354E-03  3.5615602010E-01
  6.1250000000E+03  3.6600811576E-01  4.3752350100E+00  3.4769957590E-03  3.4415666306E-03  3.5646892064E-01
  6.1300000000E+03  3.6628822950E-01  4.3730884182E+00  3.4852240154E-03  3.4496513907E-03  3.5678161742E-01
  6.1350000000E+03  3.6656832898E-01  4.3709446284E+00  3.4934650112E-03  3.4577484239E-03  3.5709411015E-01
  6.1400000000E+03  3.6685553136E-01  4.3688036347E+00  3.5017187559E-03  3.4658583735E-03  3.5740639858E-01
  6.1450000000E+03  3.6715056266E-01  4.3666654312E+00  3.5099852587E-03  3.4739813188E-03  3.5771848242E-01
  6.1500000000E+03  3.6744559098E-01  4.3645300121E+00  3.5182645289E-03  3.4821165710E-03  3.5803036142E-01
  6.1550000000E+03  3.6774061632E-01  4.3624012192E+00  3.5265565759E-03  3.4902641408E-03  3.5834203531E-01
  6.1600000000E+03  3.6803563869E-01  4.3602854635E+00  3.5348614089E-03  3.4984240405E-03  3.5865350382E-01
  6.1650000000E+03  3.6833065808E-01  4.3581724493E+00  3.5431790373E-03  3.5065962719E-03  3.5896476669E-01
  6.1700000000E+03  3.6862567450E-01  4.3560621709E+00  3.5515094705E-03  3.5147808431E-03  3.5927582367E-01
  6.1750000000E+03  3.6892068795E-01  4.3539546225E+00  3.5598527176E-03  3.5229777622E-03  3.5958667449E-01
  6.1800000000E+03  3.6921569844E-01  4.3518497984E+00  3.5682087880E-03  3.5311870375E-03  3.5989731890E-01
  6.1850000000E+03  3.6951070596E-01  4.3497476928E+00  3.5765776911E-03  3.5394086772E-03  3.6020775663E-01
  6.1900000000E+03  3.6980571053E-01  4.3476483001E+00  3.5849594361E-03  3.5476426894E-03  3.6051798745E-01
  6.1950000000E+03  3.7010070177E-01  4.3455516145E+00  3.5933540324E-03  3.5558890814E-03  3.6082801109E-01
  6.2000000000E+03  3.7039561257E-01  4.3434576303E+00  3.6017614892E-03  3.5641478550E-03  3.6113782731E-01
  6.2050000000E+03  3.7069052035E-01  4.3413663420E+00  3.6101818159E-03  3.5724190257E-03  3.6144743586E-01
  6.2100000000E+03  3.7098542510E-01  4.3392777439E+00  3.6186150218E-03  3.5807026016E-03  3.6175683648E-01
  6.2150000000E+03  3.7128032684E-01  4.3371918303E+00  3.6270611161E-03  3.5889985907E-03  3.6206602894E-01
  6.2200000000E+03  3.7157522557E-01  4.3351085957E+00  3.6355201082E-03  3.5973070014E-03  3.6237501299E-01
  6.2250000000E+03  3.7187012128E-01  4.3330280345E+00  3.6439920074E-03  3.6056278418E-03  3.6268378839E-01
  6.2300000000E+03  3.7216501398E-01  4.3309501410E+00  3.6524768229E-03  3.6139611199E-03  3.6299235490E-01
  6.2350000000E+03  3.7245990367E-01  4.3288749098E+00  3.6609745642E-03  3.6223068441E-03  3.6330071227E-01
  6.2400000000E+03  3.7275479035E-01  4.3268023353E+00  3.6694852404E-03  3.6306650224E-03  3.6360886028E-01
  6.2450000000E+03  3.7304967403E-01  4.3247324119E+00  3.6780088610E-03  3.6390356629E-03  3.6391679868E-01
  6.2500000000E+03  3.7334455471E-01  4.3226651342E+00  3.6865454351E-03  3.6474187739E-03  3.6422452725E-01
  6.2550000000E+03  3.7363945553E-01  4.3206069652E+00  3.6950949721E-03  3.6558143703E-03  3.6453204574E-01
  6.2600000000E+03  3.7393436562E-01  4.3185590278E+00  3.7036574813E-03  3.6642224602E-03  3.6483935394E-01
  6.2650000000E+03  3.7422927274E-01  4.3165136950E+00  3.7122329720E-03  3.6726430450E-03  3.6514645160E-01
  6.2700000000E+03  3.7452417690E-01  4.3144709614E+00  3.7208214535E-03  3.6810761330E-03  3.6545333851E-01
  6.2750000000E+03  3.7481907810E-01  4.3124308217E+00  3.7294229351E-03  3.6895217322E-03  3.6576001443E-01
  6.2800000000E+03  3.7511397633E-01  4.3103932705E+00  3.7380374260E-03  3.6979798507E-03  3.6606647914E-01
  6.2850000000E+03  3.7540887161E-01  4.3083583025E+00  3.7466649357E-03  3.7064504968E-03  3.6637273243E-01
  6.2900000000E+03  3.7570376394E-01  4.3063259124E+00  3.7553054732E-03  3.7149336785E-03  3.6667877405E-01
  6.2950000000E+03  3.7599865332E-01  4.3042960947E+00  3.7639590481E-03  3.7234294040E-03  3.6698460381E-01
  6.3000000000E+03  3.7629353974E-01  4.3022688443E+00  3.7726256695E-03  3.7319376814E-03  3.6729022148E-01
  6.3050000000E+03  3.7658842322E-01  4.3002441559E+00  3.7813053467E-03  3.7404585188E-03  3.6759562684E-01
  6.3100000000E+03  3.7688330004E-01  4.2982220241E+00  3.7899980891E-03  3.7489919239E-03  3.6790081968E-01
  6.3150000000E+03  3.7717813446E-01  4.2962024438E+00  3.7987039059E-03  3.7575379014E-03  3.6820579978E-01
  6.3200000000E+03  3.7747296590E-01  4.2941854097E+00  3.8074228064E-03  3.7660964632E-03  3.6851056694E-01
  6.3250000000E+03  3.7776779438E-01  4.2921709165E+00  3.8161547999E-03  3.7746676174E-03  3.6881512094E-01
  6.3300000000E+03  3.7806261988E-01  4.2901589592E+00  3.8248998957E-03  3.7832513721E-03  3.6911946157E-01
  6.3350000000E+03  3.7835744242E-01  4.2881495324E+00  3.8336581030E-03  3.7918477355E-03  3.6942358863E-01
  6.3400000000E+03  3.7865226200E-01  4.2861426310E+00  3.8424294313E-03  3.8004567156E-03  3.6972750191E-01
  6.3450000000E+03  3.7894707861E-01  4.2841382499E+00  3.8512138897E-03  3.8090783206E-03  3.7003120121E-01
  6.3500000000E+03  3.7924189227E-01  4.2821363839E+00  3.8600114875E-03  3.8177125585E-03  3.7033468633E-01
