#[MATERIAL DEFINITION FOR MC-GPU: interaction mean free path and sampling data from PENELOPE 2018]
#[MATERIAL NAME]
# POLYMETHYL METHACRALATE (LUCITE, PERSPEX, PLEXIGLASS)  (224)  
#[NOMINAL DENSITY (g/cm^3)]
#   1.19000000
#[NUMBER OF DATA VALUES]
#  23002
#[MEAN FREE PATHS (cm) (ie, average distance between interactions)]
#[Energy (eV)     | Rayleigh        | Compton         | Photoelectric   | TOTAL (+pair prod) (cm) | Rayleigh: max cumul prob F^2]
  5.0000000000E+03  1.9378679252E+00  6.8162551068E+00  3.2991331378E-02  3.2285422011E-02  3.4199686313E-01
  5.0050000000E+03  1.9401533937E+00  6.8130266371E+00  3.3092801141E-02  3.2383154122E-02  3.4225014120E-01
  5.0100000000E+03  1.9424392716E+00  6.8098029179E+00  3.3194481145E-02  3.2481080197E-02  3.4250319504E-01
  5.0150000000E+03  1.9447263025E+00  6.8065839374E+00  3.3296371615E-02  3.2579200612E-02  3.4275602532E-01
  5.0200000000E+03  1.9470141879E+00  6.8033696841E+00  3.3398472776E-02  3.2677515456E-02  3.4300863271E-01
  5.0250000000E+03  1.9493024832E+00  6.8001601462E+00  3.3500784854E-02  3.2776024773E-02  3.4326101788E-01
  5.0300000000E+03  1.9515911882E+00  6.7969553121E+00  3.3603308072E-02  3.2874728731E-02  3.4351318150E-01
  5.0350000000E+03  1.9538803024E+00  6.7937551703E+00  3.3706042657E-02  3.2973627499E-02  3.4376512423E-01
  5.0400000000E+03  1.9561698255E+00  6.7905597093E+00  3.3808988833E-02  3.3072721245E-02  3.4401684675E-01
  5.0450000000E+03  1.9584597573E+00  6.7873689176E+00  3.3912146825E-02  3.3172010139E-02  3.4426834971E-01
  5.0500000000E+03  1.9607500973E+00  6.7841827837E+00  3.4015516859E-02  3.3271494347E-02  3.4451963376E-01
  5.0550000000E+03  1.9630408453E+00  6.7810012963E+00  3.4119099159E-02  3.3371174038E-02  3.4477069958E-01
  5.0600000000E+03  1.9653321580E+00  6.7778244440E+00  3.4222893950E-02  3.3471049425E-02  3.4502154781E-01
  5.0650000000E+03  1.9676241702E+00  6.7746522154E+00  3.4326901458E-02  3.3571120716E-02  3.4527217911E-01
  5.0700000000E+03  1.9699165899E+00  6.7714845993E+00  3.4431121908E-02  3.3671387995E-02  3.4552259412E-01
  5.0750000000E+03  1.9722094169E+00  6.7683215844E+00  3.4535555525E-02  3.3771851428E-02  3.4577279349E-01
  5.0800000000E+03  1.9745026508E+00  6.7651631596E+00  3.4640202534E-02  3.3872511184E-02  3.4602277788E-01
  5.0850000000E+03  1.9767962912E+00  6.7620576286E+00  3.4745063160E-02  3.3973368648E-02  3.4627254791E-01
  5.0900000000E+03  1.9790903379E+00  6.7589612586E+00  3.4850137629E-02  3.4074422903E-02  3.4652210425E-01
  5.0950000000E+03  1.9813847905E+00  6.7558693444E+00  3.4955426165E-02  3.4175673997E-02  3.4677144751E-01
  5.1000000000E+03  1.9836796487E+00  6.7527818754E+00  3.5060928994E-02  3.4277122098E-02  3.4702057835E-01
  5.1050000000E+03  1.9859749121E+00  6.7496988407E+00  3.5166646341E-02  3.4378767373E-02  3.4726949740E-01
  5.1100000000E+03  1.9882699727E+00  6.7466202297E+00  3.5272578432E-02  3.4480609804E-02  3.4751820528E-01
  5.1150000000E+03  1.9905654309E+00  6.7435460316E+00  3.5378725491E-02  3.4582649739E-02  3.4776670264E-01
  5.1200000000E+03  1.9928612925E+00  6.7404762360E+00  3.5485087744E-02  3.4684887346E-02  3.4801499009E-01
  5.1250000000E+03  1.9951575573E+00  6.7374108321E+00  3.5591665416E-02  3.4787322790E-02  3.4826306827E-01
  5.1300000000E+03  1.9974542250E+00  6.7343498094E+00  3.5698458733E-02  3.4889956238E-02  3.4851093780E-01
  5.1350000000E+03  1.9997512951E+00  6.7312931574E+00  3.5805467919E-02  3.4992787857E-02  3.4875859931E-01
  5.1400000000E+03  2.0020487674E+00  6.7282408656E+00  3.5912693201E-02  3.5095817812E-02  3.4900605340E-01
  5.1450000000E+03  2.0043466416E+00  6.7251929236E+00  3.6020134803E-02  3.5199046269E-02  3.4925330071E-01
  5.1500000000E+03  2.0066449173E+00  6.7221493209E+00  3.6127792951E-02  3.5302473393E-02  3.4950034185E-01
  5.1550000000E+03  2.0089439759E+00  6.7191100471E+00  3.6235667871E-02  3.5406099469E-02  3.4974717742E-01
  5.1600000000E+03  2.0112437587E+00  6.7160750920E+00  3.6343759787E-02  3.5509924645E-02  3.4999380808E-01
  5.1650000000E+03  2.0135439430E+00  6.7130726641E+00  3.6452068925E-02  3.5613949781E-02  3.5024023462E-01
  5.1700000000E+03  2.0158445284E+00  6.7100971891E+00  3.6560595511E-02  3.5718174900E-02  3.5048645769E-01
  5.1750000000E+03  2.0181455148E+00  6.7071259074E+00  3.6669339770E-02  3.5822599532E-02  3.5073247793E-01
  5.1800000000E+03  2.0204469017E+00  6.7041588089E+00  3.6778301927E-02  3.5927223842E-02  3.5097829598E-01
  5.1850000000E+03  2.0227486888E+00  6.7011958837E+00  3.6887482208E-02  3.6032047994E-02  3.5122391245E-01
  5.1900000000E+03  2.0250508758E+00  6.6982371219E+00  3.6996880839E-02  3.6137072153E-02  3.5146932799E-01
  5.1950000000E+03  2.0273534625E+00  6.6952825137E+00  3.7106498045E-02  3.6242296484E-02  3.5171454322E-01
  5.2000000000E+03  2.0296564671E+00  6.6923320492E+00  3.7216334051E-02  3.6347721157E-02  3.5195955875E-01
  5.2050000000E+03  2.0319621797E+00  6.6893857186E+00  3.7326389083E-02  3.6453347074E-02  3.5220437522E-01
  5.2100000000E+03  2.0342682940E+00  6.6864435123E+00  3.7436663367E-02  3.6559173662E-02  3.5244899324E-01
  5.2150000000E+03  2.0365748096E+00  6.6835054204E+00  3.7547157128E-02  3.6665201086E-02  3.5269341343E-01
  5.2200000000E+03  2.0388817264E+00  6.6805714333E+00  3.7657870591E-02  3.6771429508E-02  3.5293763640E-01
  5.2250000000E+03  2.0411890439E+00  6.6776415414E+00  3.7768803983E-02  3.6877859093E-02  3.5318166277E-01
  5.2300000000E+03  2.0434967619E+00  6.6747157349E+00  3.7879957529E-02  3.6984490005E-02  3.5342549315E-01
  5.2350000000E+03  2.0458048800E+00  6.6717940044E+00  3.7991331454E-02  3.7091322408E-02  3.5366912815E-01
  5.2400000000E+03  2.0481133979E+00  6.6688763402E+00  3.8102925985E-02  3.7198356463E-02  3.5391256837E-01
  5.2450000000E+03  2.0504223153E+00  6.6659627328E+00  3.8214741347E-02  3.7305592336E-02  3.5415581442E-01
  5.2500000000E+03  2.0527374552E+00  6.6630988190E+00  3.8326777765E-02  3.7413033562E-02  3.5439886691E-01
  5.2550000000E+03  2.0550622704E+00  6.6602421401E+00  3.8439035465E-02  3.7520680158E-02  3.5464172643E-01
  5.2600000000E+03  2.0573875039E+00  6.6573894010E+00  3.8551514673E-02  3.7628529119E-02  3.5488439358E-01
  5.2650000000E+03  2.0597131554E+00  6.6545405924E+00  3.8664215615E-02  3.7736580608E-02  3.5512686896E-01
  5.2700000000E+03  2.0620392244E+00  6.6516957054E+00  3.8777138517E-02  3.7844834789E-02  3.5536915317E-01
  5.2750000000E+03  2.0643657107E+00  6.6488547306E+00  3.8890283603E-02  3.7953291824E-02  3.5561124680E-01
  5.2800000000E+03  2.0666926140E+00  6.6460176592E+00  3.9003651101E-02  3.8061951876E-02  3.5585315043E-01
  5.2850000000E+03  2.0690199339E+00  6.6431844819E+00  3.9117241235E-02  3.8170815107E-02  3.5609486466E-01
  5.2900000000E+03  2.0713476701E+00  6.6403551898E+00  3.9231054232E-02  3.8279881680E-02  3.5633639008E-01
  5.2950000000E+03  2.0736758223E+00  6.6375297740E+00  3.9345090317E-02  3.8389151757E-02  3.5657772727E-01
  5.3000000000E+03  2.0760041050E+00  6.6347082253E+00  3.9459349716E-02  3.8498625402E-02  3.5681887682E-01
  5.3050000000E+03  2.0783326645E+00  6.6318905350E+00  3.9573832655E-02  3.8608302826E-02  3.5705983930E-01
  5.3100000000E+03  2.0806616386E+00  6.6290766941E+00  3.9688539359E-02  3.8718184239E-02  3.5730061530E-01
  5.3150000000E+03  2.0829910268E+00  6.6262666936E+00  3.9803470056E-02  3.8828269802E-02  3.5754120539E-01
  5.3200000000E+03  2.0853208289E+00  6.6234605249E+00  3.9918624970E-02  3.8938559677E-02  3.5778161014E-01
  5.3250000000E+03  2.0876510446E+00  6.6206581790E+00  4.0034004328E-02  3.9049054025E-02  3.5802183015E-01
  5.3300000000E+03  2.0899816735E+00  6.6178617334E+00  4.0149608355E-02  3.9159753081E-02  3.5826186596E-01
  5.3350000000E+03  2.0923127153E+00  6.6151140000E+00  4.0265437277E-02  3.9270658515E-02  3.5850171817E-01
  5.3400000000E+03  2.0946441697E+00  6.6123699799E+00  4.0381491320E-02  3.9381768926E-02  3.5874138732E-01
  5.3450000000E+03  2.0969760364E+00  6.6096296645E+00  4.0497770711E-02  3.9493084472E-02  3.5898087400E-01
  5.3500000000E+03  2.0993080115E+00  6.6068930455E+00  4.0614275675E-02  3.9604605207E-02  3.5922017877E-01
  5.3550000000E+03  2.1016403534E+00  6.6041601143E+00  4.0731006438E-02  3.9716331383E-02  3.5945930218E-01
  5.3600000000E+03  2.1039731061E+00  6.6014308625E+00  4.0847963226E-02  3.9828263176E-02  3.5969824481E-01
  5.3650000000E+03  2.1063062695E+00  6.5987052819E+00  4.0965146265E-02  3.9940400747E-02  3.5993700721E-01
  5.3700000000E+03  2.1086398431E+00  6.5959833639E+00  4.1082555782E-02  4.0052744256E-02  3.6017558993E-01
  5.3750000000E+03  2.1109738267E+00  6.5932651004E+00  4.1200192001E-02  4.0165293863E-02  3.6041399354E-01
  5.3800000000E+03  2.1133082200E+00  6.5905504829E+00  4.1318055150E-02  4.0278049728E-02  3.6065221859E-01
  5.3850000000E+03  2.1156430226E+00  6.5878395033E+00  4.1436145455E-02  4.0391012011E-02  3.6089026563E-01
  5.3900000000E+03  2.1179782343E+00  6.5851321533E+00  4.1554463141E-02  4.0504180871E-02  3.6112813521E-01
  5.3950000000E+03  2.1203138547E+00  6.5824284246E+00  4.1673008434E-02  4.0617556469E-02  3.6136582789E-01
  5.4000000000E+03  2.1226502381E+00  6.5797283091E+00  4.1791781561E-02  4.0731139093E-02  3.6160334420E-01
  5.4050000000E+03  2.1249870381E+00  6.5770317986E+00  4.1910782748E-02  4.0844928778E-02  3.6184068470E-01
  5.4100000000E+03  2.1273242464E+00  6.5743388850E+00  4.2030012221E-02  4.0958925678E-02  3.6207784993E-01
  5.4150000000E+03  2.1296618627E+00  6.5716495601E+00  4.2149470206E-02  4.1073129954E-02  3.6231484044E-01
  5.4200000000E+03  2.1319998866E+00  6.5690037161E+00  4.2269156929E-02  4.1187543332E-02  3.6255165675E-01
  5.4250000000E+03  2.1343383179E+00  6.5663666109E+00  4.2389072617E-02  4.1302164627E-02  3.6278829942E-01
  5.4300000000E+03  2.1366771563E+00  6.5637329924E+00  4.2509217495E-02  4.1416993793E-02  3.6302476898E-01
  5.4350000000E+03  2.1390164014E+00  6.5611028526E+00  4.2629591790E-02  4.1532030988E-02  3.6326106597E-01
  5.4400000000E+03  2.1413560530E+00  6.5584761838E+00  4.2750195729E-02  4.1647276371E-02  3.6349719091E-01
  5.4450000000E+03  2.1436961107E+00  6.5558529783E+00  4.2871029537E-02  4.1762730101E-02  3.6373314436E-01
  5.4500000000E+03  2.1460848635E+00  6.5532332282E+00  4.2992093440E-02  4.1878410723E-02  3.6396892682E-01
  5.4550000000E+03  2.1484743757E+00  6.5506169258E+00  4.3113387665E-02  4.1994300265E-02  3.6420453884E-01
  5.4600000000E+03  2.1508643555E+00  6.5480040636E+00  4.3234912439E-02  4.2110398775E-02  3.6443998095E-01
  5.4650000000E+03  2.1532548027E+00  6.5453946337E+00  4.3356667987E-02  4.2226706411E-02  3.6467525366E-01
  5.4700000000E+03  2.1556457169E+00  6.5427886287E+00  4.3478654536E-02  4.2343223332E-02  3.6491035751E-01
  5.4750000000E+03  2.1580370978E+00  6.5401860407E+00  4.3600872312E-02  4.2459949695E-02  3.6514529301E-01
  5.4800000000E+03  2.1604289450E+00  6.5375868623E+00  4.3723321541E-02  4.2576885658E-02  3.6538006070E-01
  5.4850000000E+03  2.1628212583E+00  6.5349910859E+00  4.3846002451E-02  4.2694031379E-02  3.6561466108E-01
  5.4900000000E+03  2.1652140372E+00  6.5323987039E+00  4.3968915266E-02  4.2811387017E-02  3.6584909468E-01
  5.4950000000E+03  2.1676072815E+00  6.5298097088E+00  4.4092060215E-02  4.2928952727E-02  3.6608336202E-01
  5.5000000000E+03  2.1700028310E+00  6.5272240932E+00  4.4215437522E-02  4.3046729392E-02  3.6631746361E-01
  5.5050000000E+03  2.1723990120E+00  6.5246612245E+00  4.4339626760E-02  4.3165266428E-02  3.6655139997E-01
  5.5100000000E+03  2.1747956600E+00  6.5221256153E+00  4.4464051527E-02  4.3284017531E-02  3.6678517161E-01
  5.5150000000E+03  2.1771927745E+00  6.5195932900E+00  4.4588712053E-02  4.3402981821E-02  3.6701877904E-01
  5.5200000000E+03  2.1795903554E+00  6.5170642414E+00  4.4713608572E-02  4.3522159459E-02  3.6725222288E-01
  5.5250000000E+03  2.1819884022E+00  6.5145384623E+00  4.4838741316E-02  4.3641550606E-02  3.6748550371E-01
  5.5300000000E+03  2.1843869146E+00  6.5120159455E+00  4.4964110516E-02  4.3761155423E-02  3.6771862206E-01
  5.5350000000E+03  2.1867858924E+00  6.5094966839E+00  4.5089716405E-02  4.3880974071E-02  3.6795157847E-01
  5.5400000000E+03  2.1891853350E+00  6.5069806703E+00  4.5215559216E-02  4.4001006711E-02  3.6818437349E-01
  5.5450000000E+03  2.1915852424E+00  6.5044678976E+00  4.5341639180E-02  4.4121253503E-02  3.6841700766E-01
  5.5500000000E+03  2.1939855685E+00  6.5019583587E+00  4.5467956530E-02  4.4241714589E-02  3.6864948150E-01
  5.5550000000E+03  2.1963863433E+00  6.4994520465E+00  4.5594511498E-02  4.4362390142E-02  3.6888179556E-01
  5.5600000000E+03  2.1987875816E+00  6.4969489541E+00  4.5721304316E-02  4.4483280327E-02  3.6911395036E-01
  5.5650000000E+03  2.2011892832E+00  6.4944490743E+00  4.5848335218E-02  4.4604385306E-02  3.6934594644E-01
  5.5700000000E+03  2.2035914477E+00  6.4919524002E+00  4.5975604434E-02  4.4725705237E-02  3.6957778433E-01
  5.5750000000E+03  2.2059940748E+00  6.4894589247E+00  4.6103112198E-02  4.4847240280E-02  3.6980946455E-01
  5.5800000000E+03  2.2083971641E+00  6.4869686410E+00  4.6230858742E-02  4.4968990595E-02  3.7004098763E-01
  5.5850000000E+03  2.2108007154E+00  6.4844815421E+00  4.6358844298E-02  4.5090956342E-02  3.7027235411E-01
  5.5900000000E+03  2.2132047283E+00  6.4819976211E+00  4.6487069099E-02  4.5213137679E-02  3.7050356449E-01
  5.5950000000E+03  2.2156092025E+00  6.4795470946E+00  4.6615533378E-02  4.5335536245E-02  3.7073461930E-01
  5.6000000000E+03  2.2180142227E+00  6.4771108619E+00  4.6744237366E-02  4.5458151322E-02  3.7096551907E-01
  5.6050000000E+03  2.2204197945E+00  6.4746777181E+00  4.6873181296E-02  4.5580982526E-02  3.7119626430E-01
  5.6100000000E+03  2.2228258268E+00  6.4722476567E+00  4.7002365400E-02  4.5704029979E-02  3.7142685553E-01
  5.6150000000E+03  2.2252323193E+00  6.4698206710E+00  4.7131789912E-02  4.5827293838E-02  3.7165729326E-01
  5.6200000000E+03  2.2276392717E+00  6.4673967543E+00  4.7261455064E-02  4.5950774263E-02  3.7188757801E-01
  5.6250000000E+03  2.2300466837E+00  6.4649759001E+00  4.7391361088E-02  4.6074471412E-02  3.7211771029E-01
  5.6300000000E+03  2.2324545550E+00  6.4625581018E+00  4.7521508217E-02  4.6198385443E-02  3.7234769061E-01
  5.6350000000E+03  2.2348628852E+00  6.4601433528E+00  4.7651896683E-02  4.6322516514E-02  3.7257751948E-01
  5.6400000000E+03  2.2372716740E+00  6.4577316465E+00  4.7782526719E-02  4.6446864783E-02  3.7280719741E-01
  5.6450000000E+03  2.2396809211E+00  6.4553229765E+00  4.7913398558E-02  4.6571430407E-02  3.7303672491E-01
  5.6500000000E+03  2.2420907965E+00  6.4529173362E+00  4.8044512432E-02  4.6696213618E-02  3.7326610248E-01
  5.6550000000E+03  2.2445023126E+00  6.4505147191E+00  4.8175868574E-02  4.6821215016E-02  3.7349533063E-01
  5.6600000000E+03  2.2469142878E+00  6.4481151189E+00  4.8307467217E-02  4.6946434245E-02  3.7372440986E-01
  5.6650000000E+03  2.2493267216E+00  6.4457185289E+00  4.8439308593E-02  4.7071871464E-02  3.7395334067E-01
  5.6700000000E+03  2.2517396139E+00  6.4433249428E+00  4.8571392935E-02  4.7197526829E-02  3.7418212356E-01
  5.6750000000E+03  2.2541529643E+00  6.4409343543E+00  4.8703720475E-02  4.7323400498E-02  3.7441075902E-01
  5.6800000000E+03  2.2565667725E+00  6.4385467568E+00  4.8836291447E-02  4.7449492626E-02  3.7463924756E-01
  5.6850000000E+03  2.2589810381E+00  6.4361909053E+00  4.8969106084E-02  4.7575804943E-02  3.7486758967E-01
  5.6900000000E+03  2.2613957608E+00  6.4338487669E+00  4.9102164617E-02  4.7702336641E-02  3.7509578585E-01
  5.6950000000E+03  2.2638109404E+00  6.4315095368E+00  4.9235467280E-02  4.7829087292E-02  3.7532383658E-01
  5.7000000000E+03  2.2662265766E+00  6.4291732090E+00  4.9369014306E-02  4.7956057050E-02  3.7555174236E-01
  5.7050000000E+03  2.2686422824E+00  6.4268397772E+00  4.9502805927E-02  4.8083245899E-02  3.7577950368E-01
  5.7100000000E+03  2.2710582550E+00  6.4245092355E+00  4.9636842377E-02  4.8210654081E-02  3.7600712102E-01
  5.7150000000E+03  2.2734746824E+00  6.4221815776E+00  4.9771123887E-02  4.8338281837E-02  3.7623459489E-01
  5.7200000000E+03  2.2758915643E+00  6.4198567975E+00  4.9905650692E-02  4.8466129323E-02  3.7646192575E-01
  5.7250000000E+03  2.2783089005E+00  6.4175348891E+00  5.0040423023E-02  4.8594196693E-02  3.7668911409E-01
  5.7300000000E+03  2.2807266906E+00  6.4152158464E+00  5.0175441114E-02  4.8722484104E-02  3.7691616041E-01
  5.7350000000E+03  2.2831449342E+00  6.4128996633E+00  5.0310705198E-02  4.8850991709E-02  3.7714306518E-01
  5.7400000000E+03  2.2855636312E+00  6.4105863338E+00  5.0446215508E-02  4.8979719665E-02  3.7736982888E-01
  5.7450000000E+03  2.2879827812E+00  6.4082758519E+00  5.0581972276E-02  4.9108668125E-02  3.7759645199E-01
  5.7500000000E+03  2.2904023839E+00  6.4059682117E+00  5.0717975736E-02  4.9237837245E-02  3.7782293499E-01
  5.7550000000E+03  2.2928224973E+00  6.4036634072E+00  5.0854226121E-02  4.9367227206E-02  3.7804927835E-01
  5.7600000000E+03  2.2952434917E+00  6.4013614324E+00  5.0990723663E-02  4.9496838335E-02  3.7827548256E-01
  5.7650000000E+03  2.2976649383E+00  6.3990622813E+00  5.1127468596E-02  4.9626670589E-02  3.7850154809E-01
  5.7700000000E+03  2.3000868371E+00  6.3967659482E+00  5.1264461153E-02  4.9756724120E-02  3.7872747540E-01
  5.7750000000E+03  2.3025091875E+00  6.3944888455E+00  5.1401701566E-02  4.9887000083E-02  3.7895326498E-01
  5.7800000000E+03  2.3049319895E+00  6.3922358529E+00  5.1539190069E-02  5.0017498949E-02  3.7917891729E-01
  5.7850000000E+03  2.3073552425E+00  6.3899856012E+00  5.1676926895E-02  5.0148219577E-02  3.7940443280E-01
  5.7900000000E+03  2.3097789464E+00  6.3877380847E+00  5.1814912278E-02  5.0279162122E-02  3.7962981198E-01
  5.7950000000E+03  2.3122031007E+00  6.3854932977E+00  5.1953146449E-02  5.0410326738E-02  3.7985505530E-01
  5.8000000000E+03  2.3146277053E+00  6.3832512346E+00  5.2091629643E-02  5.0541713577E-02  3.8008016323E-01
  5.8050000000E+03  2.3170527598E+00  6.3810118896E+00  5.2230362092E-02  5.0673322792E-02  3.8030513622E-01
  5.8100000000E+03  2.3194781887E+00  6.3787752572E+00  5.2369344030E-02  5.0805154501E-02  3.8052997474E-01
  5.8150000000E+03  2.3219039826E+00  6.3765413318E+00  5.2508575690E-02  5.0937208851E-02  3.8075467926E-01
  5.8200000000E+03  2.3243302253E+00  6.3743101077E+00  5.2648057305E-02  5.1069486035E-02  3.8097925023E-01
  5.8250000000E+03  2.3267569165E+00  6.3720815793E+00  5.2787789108E-02  5.1201986206E-02  3.8120368812E-01
  5.8300000000E+03  2.3291840559E+00  6.3698557412E+00  5.2927771333E-02  5.1334709516E-02  3.8142799338E-01
  5.8350000000E+03  2.3316116432E+00  6.3676325877E+00  5.3068004212E-02  5.1467656117E-02  3.8165216647E-01
  5.8400000000E+03  2.3340396781E+00  6.3654121133E+00  5.3208487980E-02  5.1600826161E-02  3.8187620785E-01
  5.8450000000E+03  2.3364681603E+00  6.3631943125E+00  5.3349222870E-02  5.1734219800E-02  3.8210011798E-01
  5.8500000000E+03  2.3388970895E+00  6.3609791798E+00  5.3490209113E-02  5.1867837185E-02  3.8232389730E-01
  5.8550000000E+03  2.3413264653E+00  6.3587667097E+00  5.3631446946E-02  5.2001678468E-02  3.8254754627E-01
  5.8600000000E+03  2.3437562876E+00  6.3565568967E+00  5.3772936599E-02  5.2135743801E-02  3.8277106535E-01
  5.8650000000E+03  2.3461861074E+00  6.3543497354E+00  5.3914678307E-02  5.2270033111E-02  3.8299445498E-01
  5.8700000000E+03  2.3486162014E+00  6.3521757611E+00  5.4056672304E-02  5.2404548764E-02  3.8321771562E-01
  5.8750000000E+03  2.3510467401E+00  6.3500098584E+00  5.4198918822E-02  5.2539289314E-02  3.8344084770E-01
  5.8800000000E+03  2.3534777233E+00  6.3478465358E+00  5.4341418095E-02  5.2674254539E-02  3.8366385169E-01
  5.8850000000E+03  2.3559091506E+00  6.3456857880E+00  5.4484170356E-02  5.2809444590E-02  3.8388672802E-01
  5.8900000000E+03  2.3583410218E+00  6.3435276098E+00  5.4627175840E-02  5.2944859618E-02  3.8410947715E-01
  5.8950000000E+03  2.3607733366E+00  6.3413719960E+00  5.4770434778E-02  5.3080499773E-02  3.8433209952E-01
  5.9000000000E+03  2.3632060946E+00  6.3392189413E+00  5.4913947406E-02  5.3216365206E-02  3.8455459556E-01
  5.9050000000E+03  2.3656392955E+00  6.3370684405E+00  5.5057713955E-02  5.3352456065E-02  3.8477696573E-01
  5.9100000000E+03  2.3680729392E+00  6.3349204885E+00  5.5201734661E-02  5.3488772502E-02  3.8499921046E-01
  5.9150000000E+03  2.3705070252E+00  6.3327750801E+00  5.5346009756E-02  5.3625314666E-02  3.8522133019E-01
  5.9200000000E+03  2.3729422741E+00  6.3306322100E+00  5.5490539474E-02  5.3762083076E-02  3.8544332537E-01
  5.9250000000E+03  2.3753780678E+00  6.3284918733E+00  5.5635324048E-02  5.3899077567E-02  3.8566519643E-01
  5.9300000000E+03  2.3778143040E+00  6.3263540647E+00  5.5780363712E-02  5.4036298236E-02  3.8588694381E-01
  5.9350000000E+03  2.3802509823E+00  6.3242187791E+00  5.5925658700E-02  5.4173745232E-02  3.8610856794E-01
  5.9400000000E+03  2.3826881026E+00  6.3220860115E+00  5.6071209245E-02  5.4311418704E-02  3.8633006926E-01
  5.9450000000E+03  2.3851256645E+00  6.3199557567E+00  5.6217015581E-02  5.4449318800E-02  3.8655144821E-01
  5.9500000000E+03  2.3875636677E+00  6.3178280097E+00  5.6363077942E-02  5.4587445670E-02  3.8677270522E-01
  5.9550000000E+03  2.3900021120E+00  6.3157027654E+00  5.6509396561E-02  5.4725799461E-02  3.8699384071E-01
  5.9600000000E+03  2.3924409970E+00  6.3135800188E+00  5.6655971672E-02  5.4864380322E-02  3.8721485513E-01
  5.9650000000E+03  2.3948803224E+00  6.3114928021E+00  5.6802803508E-02  5.5003190910E-02  3.8743574889E-01
  5.9700000000E+03  2.3973200880E+00  6.3094093392E+00  5.6949892303E-02  5.5142228990E-02  3.8765652244E-01
  5.9750000000E+03  2.3997593778E+00  6.3073283074E+00  5.7097238292E-02  5.5281494123E-02  3.8787717619E-01
  5.9800000000E+03  2.4021990371E+00  6.3052497019E+00  5.7244841707E-02  5.5420986903E-02  3.8809771058E-01
  5.9850000000E+03  2.4046391345E+00  6.3031735178E+00  5.7392702783E-02  5.5560707514E-02  3.8831812604E-01
  5.9900000000E+03  2.4070796698E+00  6.3010997502E+00  5.7540821753E-02  5.5700656103E-02  3.8853842298E-01
  5.9950000000E+03  2.4095206426E+00  6.2990283944E+00  5.7689198851E-02  5.5840832819E-02  3.8875860183E-01
  6.0000000000E+03  2.4119620526E+00  6.2969594454E+00  5.7837834312E-02  5.5981237807E-02  3.8897866302E-01
  6.0050000000E+03  2.4144038996E+00  6.2948928986E+00  5.7987665159E-02  5.6122748720E-02  3.8919860697E-01
  6.0100000000E+03  2.4168461833E+00  6.2928287491E+00  5.8137758890E-02  5.6264491777E-02  3.8941843410E-01
  6.0150000000E+03  2.4192889034E+00  6.2907669922E+00  5.8288115747E-02  5.6406467132E-02  3.8963814483E-01
  6.0200000000E+03  2.4217320597E+00  6.2887076230E+00  5.8438735972E-02  5.6548674935E-02  3.8985773958E-01
  6.0250000000E+03  2.4241756517E+00  6.2866506369E+00  5.8589619805E-02  5.6691115339E-02  3.9007721877E-01
  6.0300000000E+03  2.4266252267E+00  6.2845960292E+00  5.8740767490E-02  5.6833791539E-02  3.9029658281E-01
  6.0350000000E+03  2.4290760005E+00  6.2825437950E+00  5.8892179268E-02  5.6976701081E-02  3.9051583214E-01
  6.0400000000E+03  2.4315272167E+00  6.2804939298E+00  5.9043855381E-02  5.7119843703E-02  3.9073496715E-01
  6.0450000000E+03  2.4339788751E+00  6.2784464287E+00  5.9195796071E-02  5.7263219556E-02  3.9095398828E-01
  6.0500000000E+03  2.4364309754E+00  6.2764012872E+00  5.9348001579E-02  5.7406828792E-02  3.9117289592E-01
  6.0550000000E+03  2.4388835173E+00  6.2743585005E+00  5.9500472148E-02  5.7550671562E-02  3.9139169050E-01
  6.0600000000E+03  2.4413365005E+00  6.2723433622E+00  5.9653208020E-02  5.7694750156E-02  3.9161037243E-01
  6.0650000000E+03  2.4437899248E+00  6.2703380206E+00  5.9806209437E-02  5.7839063243E-02  3.9182894212E-01
  6.0700000000E+03  2.4462437898E+00  6.2683349720E+00  5.9959476640E-02  5.7983610343E-02  3.9204739998E-01
  6.0750000000E+03  2.4486980952E+00  6.2663342116E+00  6.0113009871E-02  5.8128391606E-02  3.9226574642E-01
  6.0800000000E+03  2.4511528409E+00  6.2643357352E+00  6.0266809374E-02  5.8273407182E-02  3.9248398185E-01
  6.0850000000E+03  2.4536350408E+00  6.2623395381E+00  6.0420875389E-02  5.8418672536E-02  3.9270210669E-01
  6.0900000000E+03  2.4561277103E+00  6.2603456159E+00  6.0575208159E-02  5.8564178295E-02  3.9292012133E-01
  6.0950000000E+03  2.4586208632E+00  6.2583539642E+00  6.0729807926E-02  5.8709918968E-02  3.9313802619E-01
  6.1000000000E+03  2.4611144994E+00  6.2563645785E+00  6.0884674932E-02  5.8855894703E-02  3.9335582167E-01
  6.1050000000E+03  2.4636086185E+00  6.2543774544E+00  6.1039809419E-02  5.9002105652E-02  3.9357350817E-01
  6.1100000000E+03  2.4661032202E+00  6.2523925874E+00  6.1195211630E-02  5.9148551963E-02  3.9379108611E-01
  6.1150000000E+03  2.4685983042E+00  6.2504099732E+00  6.1350881807E-02  5.9295233786E-02  3.9400855588E-01
  6.1200000000E+03  2.4710938702E+00  6.2484296073E+00  6.1506820191E-02  5.9442151271E-02  3.9422591789E-01
  6.1250000000E+03  2.4735899179E+00  6.2464514854E+00  6.1663027025E-02  5.9589304567E-02  3.9444317254E-01
  6.1300000000E+03  2.4760864471E+00  6.2444756032E+00  6.1819502552E-02  5.9736693823E-02  3.9466032023E-01
  6.1350000000E+03  2.4785834573E+00  6.2425019561E+00  6.1976247013E-02  5.9884319188E-02  3.9487736136E-01
  6.1400000000E+03  2.4810809688E+00  6.2405305400E+00  6.2133260651E-02  6.0032180823E-02  3.9509429634E-01
  6.1450000000E+03  2.4835789834E+00  6.2385613504E+00  6.2290543708E-02  6.0180278877E-02  3.9531112556E-01
  6.1500000000E+03  2.4860774782E+00  6.2365943830E+00  6.2448096427E-02  6.0328613486E-02  3.9552784941E-01
  6.1550000000E+03  2.4885764530E+00  6.2346381641E+00  6.2605919049E-02  6.0477185601E-02  3.9574446831E-01
  6.1600000000E+03  2.4910759075E+00  6.2327069224E+00  6.2764011818E-02  6.0625996730E-02  3.9596098264E-01
  6.1650000000E+03  2.4935758413E+00  6.2307778452E+00  6.2922374975E-02  6.0775044886E-02  3.9617739280E-01
  6.1700000000E+03  2.4960762542E+00  6.2288509281E+00  6.3081008764E-02  6.0924330217E-02  3.9639369941E-01
  6.1750000000E+03  2.4985771459E+00  6.2269261672E+00  6.3239913426E-02  6.1073852872E-02  3.9660990297E-01
  6.1800000000E+03  2.5010785161E+00  6.2250035582E+00  6.3399089204E-02  6.1223612997E-02  3.9682600386E-01
  6.1850000000E+03  2.5035803644E+00  6.2230830969E+00  6.3558536340E-02  6.1373610740E-02  3.9704200246E-01
  6.1900000000E+03  2.5060826906E+00  6.2211647794E+00  6.3718255077E-02  6.1523846249E-02  3.9725789914E-01
  6.1950000000E+03  2.5085854811E+00  6.2192486013E+00  6.3878245658E-02  6.1674319661E-02  3.9747369428E-01
  6.2000000000E+03  2.5110886487E+00  6.2173345586E+00  6.4038508324E-02  6.1825031071E-02  3.9768938825E-01
  6.2050000000E+03  2.5135922932E+00  6.2154226473E+00  6.4199043319E-02  6.1975980686E-02  3.9790498141E-01
  6.2100000000E+03  2.5160964142E+00  6.2135128632E+00  6.4359850885E-02  6.2127168653E-02  3.9812047416E-01
  6.2150000000E+03  2.5186010116E+00  6.2116052022E+00  6.4520931265E-02  6.2278595117E-02  3.9833586684E-01
  6.2200000000E+03  2.5211060849E+00  6.2096996604E+00  6.4682284701E-02  6.2430260226E-02  3.9855115985E-01
  6.2250000000E+03  2.5236116340E+00  6.2077962335E+00  6.4843911436E-02  6.2582164124E-02  3.9876635354E-01
  6.2300000000E+03  2.5261176584E+00  6.2058949177E+00  6.5005811713E-02  6.2734306957E-02  3.9898144828E-01
  6.2350000000E+03  2.5286241580E+00  6.2039957088E+00  6.5167985774E-02  6.2886688871E-02  3.9919644445E-01
  6.2400000000E+03  2.5311311324E+00  6.2020986029E+00  6.5330433861E-02  6.3039310012E-02  3.9941134241E-01
  6.2450000000E+03  2.5336385813E+00  6.2002035958E+00  6.5493156219E-02  6.3192170525E-02  3.9962614253E-01
  6.2500000000E+03  2.5361465045E+00  6.1983106837E+00  6.5656153089E-02  6.3345270554E-02  3.9984084517E-01
  6.2550000000E+03  2.5386550359E+00  6.1964335914E+00  6.5819424714E-02  6.3498611770E-02  4.0005545071E-01
  6.2600000000E+03  2.5411641123E+00  6.1945747170E+00  6.5982971337E-02  6.3652194557E-02  4.0026995949E-01
  6.2650000000E+03  2.5436736624E+00  6.1927178838E+00  6.6146793200E-02  6.3806017325E-02  4.0048437190E-01
  6.2700000000E+03  2.5461836857E+00  6.1908630878E+00  6.6310890548E-02  6.3960080219E-02  4.0069868829E-01
  6.2750000000E+03  2.5486941821E+00  6.1890103252E+00  6.6475263621E-02  6.4114383383E-02  4.0091290902E-01
  6.2800000000E+03  2.5512051512E+00  6.1871595921E+00  6.6639912664E-02  6.4268926962E-02  4.0112703446E-01
  6.2850000000E+03  2.5537165929E+00  6.1853108848E+00  6.6804837919E-02  6.4423711099E-02  4.0134106496E-01
  6.2900000000E+03  2.5562285066E+00  6.1834641993E+00  6.6970039629E-02  6.4578735938E-02  4.0155500090E-01
  6.2950000000E+03  2.5587408923E+00  6.1816195318E+00  6.7135518037E-02  6.4734001623E-02  4.0176884262E-01
  6.3000000000E+03  2.5612537496E+00  6.1797768787E+00  6.7301273386E-02  6.4889508297E-02  4.0198259049E-01
  6.3050000000E+03  2.5637670782E+00  6.1779362359E+00  6.7467305918E-02  6.5045256103E-02  4.0219624487E-01
  6.3100000000E+03  2.5662808080E+00  6.1760975999E+00  6.7633615878E-02  6.5201245139E-02  4.0240980611E-01
  6.3150000000E+03  2.5687942661E+00  6.1742609667E+00  6.7800203507E-02  6.5357475113E-02  4.0262327457E-01
  6.3200000000E+03  2.5713081936E+00  6.1724263327E+00  6.7967069049E-02  6.5513946644E-02  4.0283665060E-01
  6.3250000000E+03  2.5738225904E+00  6.1705936941E+00  6.8134212747E-02  6.5670659874E-02  4.0304993457E-01
  6.3300000000E+03  2.5763374561E+00  6.1687630471E+00  6.8301634843E-02  6.5827614947E-02  4.0326312683E-01
  6.3350000000E+03  2.5788527905E+00  6.1669343880E+00  6.8469335582E-02  6.5984812004E-02  4.0347622773E-01
  6.3400000000E+03  2.5813685933E+00  6.1651077131E+00  6.8637315206E-02  6.6142251188E-02  4.0368923763E-01
  6.3450000000E+03  2.5838848642E+00  6.1632830186E+00  6.8805573957E-02  6.6299932639E-02  4.0390215688E-01
  6.3500000000E+03  2.5864016029E+00  6.1614603009E+00  6.8974112081E-02  6.6457856499E-02  4.0411498583E-01
